sample_index,timestamp_ms,ir,red
0,1,827,615
1,1,868,662
2,1,918,744
3,2,992,834
4,2,1129,956
5,2,1318,1084
6,2,1565,1263
7,3,1826,1492
8,3,2172,1821
9,3,2591,2216
10,3,3023,2608
11,3,3521,3061
12,3,4163,3618
13,3,4959,4351
14,3,5885,5297
15,4,7086,6470
16,4,8445,7696
17,4,9079,7370
18,4,7392,5273
19,4,5268,3652
20,4,4182,2992
21,4,3966,2958
22,5,4234,3184
23,5,4621,3561
24,5,5290,4362
25,5,6480,5525
26,5,8054,7133
27,5,10278,9316
28,6,12856,11633
29,6,15410,13876
30,6,18400,17068
31,6,22639,21215
32,6,28093,26383
33,7,35204,32448
34,7,43941,39503
35,7,55344,47875
36,7,68726,55844
37,7,82303,66508
38,7,94926,75501
39,7,105454,80644
40,8,109454,78658
41,8,103696,69805
42,8,94047,60744
43,8,86129,54923
44,8,84974,55667
45,8,90884,60386
46,8,101415,68053
47,9,112853,75269
48,9,121164,81186
49,9,127040,84501
50,9,129473,86515
51,9,130366,87662
52,9,131160,88523
53,9,130840,87419
54,9,131753,85908
55,9,134252,86913
56,10,137583,88850
57,10,140420,90973
58,10,143003,92968
59,10,145304,94102
60,10,148585,95382
61,10,151636,96029
62,10,155220,97053
63,10,158413,97855
64,10,160897,98444
65,10,162519,98250
66,10,163478,98732
67,11,163748,98832
68,11,163793,98698
69,11,163264,98707
70,11,163690,98667
71,11,163691,98640
72,11,163685,99153
73,11,163908,100357
74,11,164017,101806
75,12,163527,103340
76,12,160319,102880
77,12,154707,102157
78,12,146523,100242
79,12,136462,94756
80,12,126825,87340
81,12,114872,78212
82,12,106089,74007
83,12,100664,68828
84,12,89432,59418
85,12,75279,50483
86,13,65008,44255
87,13,57652,39677
88,13,52760,37203
89,13,51139,37563
90,13,53116,40565
91,13,58324,45539
92,13,65308,52138
93,13,74479,60389
94,13,85123,69385
95,13,95767,78572
96,13,108876,89036
97,13,123222,95428
98,14,130913,92583
99,14,130647,88934
100,14,131269,86929
101,14,131233,85934
102,14,132395,85720
103,14,134326,86312
104,14,137532,88124
105,14,142294,90975
106,14,147071,92025
107,14,146880,91616
108,14,146346,91328
109,14,146783,91811
110,14,147885,92900
111,15,150544,94172
112,15,153009,95060
113,15,154790,95646
114,15,156047,96028
115,15,157230,96396
116,15,158503,96771
117,15,159686,97072
118,15,160720,97284
119,15,161636,97486
120,15,162395,97694
121,15,163171,97884
122,15,163916,98025
123,15,163937,98132
124,16,164583,98214
125,16,165054,98247
126,16,165401,97643
127,16,165590,97652
128,16,165755,97679
129,16,165856,97674
130,16,165965,97640
131,16,166026,97584
132,16,166039,97522
133,16,166047,97475
134,16,166041,97475
135,16,166042,97496
136,17,166035,97459
137,17,166019,97421
138,17,165953,97365
139,17,165913,97331
140,17,165810,97296
141,17,165712,97256
142,17,165661,97261
143,17,165567,97252
144,17,165503,97210
145,17,165441,97166
146,17,165403,97117
147,17,165341,97064
148,17,165306,97044
149,18,165276,97054
150,18,165283,97080
151,18,165252,97048
152,18,165268,97016
153,18,165286,96995
154,18,165331,96969
155,18,165314,96945
156,18,165302,96931
157,18,165248,96947
158,18,165251,96957
159,18,165266,96924
160,18,165268,96890
161,19,165311,96853
162,19,165325,96852
163,19,165344,96852
164,19,165311,96857
165,19,165345,96868
166,19,165368,96858
167,19,165431,96851
168,19,165470,96844
169,19,165514,96820
170,19,165543,96815
171,19,165544,96815
172,19,165552,96839
173,19,165530,96830
174,19,165467,96808
175,19,165363,96756
176,20,165274,96701
177,20,165165,96666
178,20,165095,96646
179,20,165019,96643
180,20,164987,96673
181,20,164957,96642
182,20,164967,96631
183,20,164990,96620
184,20,165016,96592
185,20,164997,96586
186,20,164990,96589
187,20,164993,96633
188,20,165017,96623
189,20,165030,96646
190,20,165073,96599
191,21,165119,96598
192,21,165123,96560
193,21,165115,96591
194,21,165127,96607
195,21,165100,96630
196,21,165082,96609
197,21,165118,96612
198,21,165185,96605
199,21,165208,96592
200,21,165228,96587
201,21,165244,96603
202,21,165248,96635
203,21,165253,96632
204,21,165261,96633
205,22,165312,96605
206,22,165371,96604
207,22,165374,96594
208,22,165387,96608
209,22,165406,96624
210,22,165358,96621
211,22,165271,96591
212,22,165175,96534
213,22,165059,96485
214,22,164928,96416
215,22,164828,96411
216,22,164742,96389
217,22,164676,96419
218,23,164596,96375
219,23,164561,96350
220,23,164544,96326
221,23,164527,96309
222,23,164493,96304
223,23,164459,96296
224,23,164440,96303
225,23,164431,96313
226,23,164418,96294
227,23,164431,96274
228,23,164449,96237
229,23,164442,96222
230,23,164438,96237
231,23,164423,96238
232,23,164408,96235
233,24,164362,96219
234,24,164411,96214
235,24,164411,96187
236,24,164459,96161
237,24,164444,96148
238,24,164438,96171
239,24,164436,96179
240,24,164406,96182
241,24,164428,96174
242,24,164438,96160
243,24,164511,96119
244,24,164534,96122
245,24,164525,96146
246,24,164529,96169
247,24,164483,96179
248,25,164384,96109
249,25,164247,96054
250,25,164095,96003
251,25,163953,95954
252,25,163773,95923
253,25,163615,95891
254,25,163485,95899
255,25,163324,95867
256,25,163255,95825
257,25,163190,95803
258,25,163163,95774
259,25,163082,95741
260,25,163050,95769
261,25,163026,95772
262,25,163010,95765
263,35,162991,95773
264,54,162999,95741
265,73,163029,95725
266,93,163029,95700
267,112,163013,95701
268,131,162975,95713
269,150,162953,95728
270,169,162958,95720
271,188,162972,95687
272,207,163011,95671
273,227,163032,95648
274,246,163060,95654
275,265,163071,95645
276,284,163081,95696
277,303,163102,95694
278,322,163146,95713
279,341,163184,95687
280,361,163231,95684
281,381,163254,95678
282,399,163291,95690
283,418,163304,95721
284,437,163294,95719
285,456,163308,95732
286,475,163339,95696
287,494,163322,95665
288,514,163150,95608
289,533,162954,95568
290,552,162656,95521
291,571,162422,95497
292,590,162225,95436
293,609,162111,95417
294,628,162005,95334
295,648,161906,95312
296,668,161816,95274
297,686,161714,95253
298,705,161621,95259
299,724,161475,95227
300,743,161388,95206
301,762,161364,95146
302,782,161352,95140
303,801,161352,95121
304,820,161358,95137
305,839,161338,95160
306,858,161314,95160
307,877,161302,95166
308,896,161330,95167
309,915,161458,95170
310,935,161506,95174
311,954,161561,95202
312,973,161615,95222
313,992,161706,95283
314,1011,161781,95287
315,1030,161870,95299
316,1049,161959,95299
317,1069,162044,95315
318,1088,162096,95295
319,1107,162174,95317
320,1126,162199,95364
321,1145,162203,95385
322,1164,162262,95392
323,1184,162315,95367
324,1202,162370,95369
325,1222,162449,95381
326,1242,162495,95408
327,1260,162527,95416
328,1279,162550,95451
329,1298,162558,95426
330,1318,162524,95416
331,1336,162403,95351
332,1356,162169,95257
333,1375,161875,95205
334,1394,161616,95152
335,1413,161399,95132
336,1432,161187,95090
337,1451,161060,95069
338,1470,160959,95017
339,1489,160948,94996
340,1509,160909,94973
341,1528,160893,94984
342,1547,160870,95030
343,1566,160943,95068
344,1585,161052,95104
345,1604,161191,95128
346,1623,161367,95162
347,1644,161469,95152
348,1663,161528,95184
349,1681,161577,95202
350,1701,161625,95263
351,1720,161659,95269
352,1738,161722,95272
353,1757,161788,95264
354,1777,161901,95266
355,1796,161934,95282
356,1815,162017,95313
357,1834,162040,95370
358,1853,162088,95379
359,1872,162150,95397
360,1891,162224,95390
361,1910,162335,95411
362,1930,162405,95394
363,1949,162474,95418
364,1968,162514,95459
365,1987,162584,95516
366,2006,162615,95494
367,2026,162668,95498
368,2044,162735,95486
369,2064,162816,95479
370,2084,162850,95516
371,2102,162864,95523
372,2121,162931,95570
373,2140,162954,95573
374,2159,162987,95571
375,2178,162909,95531
376,2198,162769,95473
377,2217,162550,95404
378,2236,162317,95357
379,2255,162099,95345
380,2274,161945,95312
381,2293,161846,95292
382,2313,161793,95258
383,2331,161769,95228
384,2352,161712,95171
385,2370,161650,95186
386,2390,161609,95190
387,2409,161573,95216
388,2428,161551,95217
389,2447,161616,95201
390,2465,161682,95218
391,2485,161737,95211
392,2505,161791,95229
393,2523,161795,95232
394,2543,161811,95247
395,2561,161826,95265
396,2580,161858,95247
397,2600,161914,95252
398,2619,161974,95238
399,2638,162012,95255
400,2658,162052,95271
401,2677,162052,95314
402,2695,162123,95317
403,2714,162187,95333
404,2734,162236,95321
405,2752,162354,95316
406,2772,162388,95320
407,2792,162468,95350
408,2810,162487,95387
409,2830,162557,95412
410,2848,162574,95420
411,2868,162647,95431
412,2886,162732,95436
413,2906,162789,95437
414,2926,162844,95447
415,2944,162880,95459
416,2964,162889,95512
417,2982,162902,95499
418,3002,162919,95489
419,3021,162858,95439
420,3041,162694,95364
421,3060,162459,95301
422,3078,162263,95283
423,3098,162044,95256
424,3116,161890,95255
425,3135,161821,95234
426,3154,161786,95178
427,3173,161756,95157
428,3194,161708,95122
429,3212,161671,95127
430,3231,161622,95144
431,3250,161615,95163
432,3269,161610,95153
433,3288,161643,95143
434,3307,161668,95125
435,3327,161680,95122
436,3347,161722,95138
437,3366,161722,95128
438,3385,161710,95189
439,3403,161746,95177
440,3422,161787,95199
441,3441,161813,95186
442,3461,161901,95170
443,3481,161920,95183
444,3500,161968,95184
445,3519,161991,95211
446,3538,162005,95243
447,3556,162044,95247
448,3576,162099,95235
449,3595,162195,95248
450,3615,162258,95260
451,3634,162307,95274
452,3653,162315,95270
453,3672,162348,95295
454,3691,162330,95302
455,3710,162411,95311
456,3728,162473,95315
457,3748,162563,95318
458,3768,162608,95321
459,3786,162654,95340
460,3806,162661,95368
461,3825,162563,95330
462,3844,162389,95278
463,3863,162161,95214
464,3882,161995,95151
465,3902,161791,95087
466,3920,161639,95064
467,3940,161503,95039
468,3959,161409,95055
469,3978,161318,95036
470,3997,161298,95024
471,4016,161270,94981
472,4036,161230,94960
473,4055,161226,94971
474,4073,161211,94976
475,4093,161232,95010
476,4112,161243,95022
477,4131,161310,95027
478,4150,161328,95023
479,4169,161387,94997
480,4189,161409,95008
481,4208,161423,95019
482,4227,161427,95054
483,4246,161448,95068
484,4265,161474,95082
485,4283,161532,95058
486,4302,161611,95055
487,4322,161654,95040
488,4342,161703,95068
489,4360,161738,95107
490,4379,161767,95136
491,4399,161821,95170
492,4418,161891,95172
493,4437,161971,95157
494,4457,162062,95151
495,4476,162081,95168
496,4494,162116,95195
497,4513,162153,95244
498,4533,162186,95246
499,4552,162259,95265
500,4570,162269,95245
501,4591,162362,95242
502,4610,162417,95256
503,4628,162440,95261
504,4647,162471,95298
505,4667,162432,95282
506,4686,162256,95231
507,4705,162022,95133
508,4724,161760,95059
509,4744,161494,94968
510,4763,161292,94941
511,4781,161104,94925
512,4801,160974,94928
513,4819,160863,94873
514,4838,160773,94877
515,4857,160734,94814
516,4878,160706,94779
517,4896,160647,94772
518,4915,160583,94782
519,4935,160597,94813
520,4954,160590,94828
521,4973,160653,94842
522,4992,160696,94826
523,5012,160778,94820
524,5031,160797,94832
525,5049,160828,94849
526,5068,160854,94885
527,5087,160881,94896
528,5107,160924,94918
529,5126,160984,94896
530,5144,161088,94932
531,5165,161155,94927
532,5184,161191,94937
533,5203,161222,94957
534,5222,161258,95003
535,5241,161297,95018
536,5260,161377,95016
537,5279,161437,95017
538,5299,161546,95012
539,5318,161593,95044
540,5336,161620,95041
541,5355,161651,95100
542,5374,161695,95112
543,5394,161779,95139
544,5412,161822,95115
545,5433,161901,95116
546,5452,161946,95102
547,5471,162004,95136
548,5490,162023,95180
549,5509,162050,95206
550,5528,162092,95202
551,5546,162031,95157
552,5566,161891,95092
553,5586,161623,95016
554,5605,161379,94967
555,5624,161143,94940
556,5643,160971,94931
557,5662,160856,94903
558,5680,160794,94869
559,5699,160736,94832
560,5719,160709,94796
561,5738,160640,94799
562,5757,160574,94795
563,5777,160527,94817
564,5796,160520,94809
565,5815,160559,94820
566,5833,160656,94819
567,5853,160752,94826
568,5872,160832,94864
569,5892,160871,94901
570,5911,160925,94928
571,5929,160974,94969
572,5948,161041,95000
573,5968,161121,94993
574,5987,161215,94982
575,6007,161267,94994
576,6026,161308,95017
577,6045,161340,95047
578,6063,161402,95084
579,6083,161448,95093
580,6102,161519,95076
581,6121,161582,95060
582,6141,161625,95067
583,6160,161666,95100
584,6179,161724,95130
585,6198,161755,95167
586,6217,161787,95168
587,6236,161880,95148
588,6255,161931,95159
589,6275,162007,95183
590,6294,162062,95188
591,6313,162094,95206
592,6332,162127,95239
593,6351,162160,95241
594,6370,162230,95267
595,6388,162281,95245
596,6408,162230,95214
597,6427,162046,95134
598,6446,161780,95091
599,6466,161478,95041
600,6485,161221,95008
601,6504,161043,94944
602,6522,160905,94922
603,6542,160900,94877
604,6562,160860,94880
605,6581,160854,94874
606,6600,160808,94892
607,6619,160786,94917
608,6638,160760,94917
609,6657,160820,94911
610,6676,160900,94900
611,6696,160959,94909
612,6715,161001,94933
613,6734,161045,94951
614,6753,161071,95000
615,6771,161093,95001
616,6791,161152,95003
617,6810,161187,95006
618,6830,161287,95022
619,6848,161309,95011
620,6868,161377,95020
621,6887,161398,95085
622,6906,161443,95100
623,6925,161501,95108
624,6944,161548,95108
625,6964,161660,95103
626,6983,161711,95111
627,7002,161780,95132
628,7021,161802,95178
629,7040,161828,95200
630,7059,161879,95196
631,7078,161956,95209
632,7097,162039,95208
633,7117,162099,95210
634,7136,162168,95255
635,7154,162189,95283
636,7174,162203,95290
637,7193,162079,95239
638,7212,161894,95173
639,7231,161640,95102
640,7251,161450,95043
641,7270,161248,95000
642,7288,161139,94994
643,7308,161049,95029
644,7327,160971,95007
645,7346,160933,94982
646,7365,160872,94962
647,7385,160874,94933
648,7404,160846,94921
649,7423,160843,94937
650,7442,160851,94946
651,7461,160889,94986
652,7479,160938,95000
653,7498,160987,94984
654,7518,161031,94985
655,7538,161044,94986
656,7557,161077,94985
657,7576,161076,95014
658,7595,161081,95051
659,7614,161104,95047
660,7633,161158,95049
661,7652,161200,95024
662,7671,161275,95030
663,7691,161330,95048
664,7710,161369,95068
665,7729,161396,95110
666,7748,161435,95127
667,7767,161505,95144
668,7786,161563,95133
669,7806,161665,95152
670,7825,161699,95150
671,7844,161753,95155
672,7863,161793,95209
673,7882,161806,95226
674,7901,161878,95244
675,7920,161958,95251
676,7939,162023,95229
677,7959,161922,95172
678,7978,161713,95135
679,7997,161425,95081
680,8016,161129,95058
681,8035,160889,95017
682,8054,160781,94958
683,8072,160696,94905
684,8093,160622,94865
685,8112,160543,94863
686,8131,160438,94842
687,8150,160367,94872
688,8169,160303,94848
689,8188,160283,94863
690,8207,160288,94840
691,8227,160355,94842
692,8246,160440,94832
693,8265,160491,94875
694,8284,160523,94913
695,8303,160535,94922
696,8322,160556,94924
697,8341,160599,94899
698,8360,160662,94916
699,8379,160720,94915
700,8399,160762,94938
701,8417,160782,94967
702,8437,160835,94993
703,8456,160862,95016
704,8475,160928,95001
705,8494,161015,95014
706,8514,161076,95009
707,8532,161143,95034
708,8551,161181,95073
709,8571,161232,95098
710,8590,161278,95124
711,8609,161340,95132
712,8628,161424,95125
713,8648,161510,95124
714,8667,161577,95132
715,8686,161604,95160
716,8705,161647,95213
717,8724,161664,95220
718,8743,161720,95201
719,8762,161710,95190
720,8782,161640,95125
721,8801,161405,95063
722,8820,161113,95007
723,8839,160827,94969
724,8858,160609,94959
725,8877,160450,94914
726,8896,160343,94858
727,8915,160299,94839
728,8935,160221,94780
729,8954,160174,94795
730,8973,160102,94807
731,8992,160074,94824
732,9011,160075,94817
733,9029,160136,94815
734,9049,160231,94841
735,9069,160309,94830
736,9088,160361,94857
737,9107,160398,94871
738,9126,160413,94902
739,9145,160420,94918
740,9164,160491,94910
741,9183,160542,94902
742,9203,160608,94888
743,9222,160634,94914
744,9241,160681,94930
745,9260,160760,94982
746,9279,160798,95004
747,9297,160887,95025
748,9317,160961,95026
749,9337,161060,95030
750,9356,161111,95050
751,9375,161183,95074
752,9394,161212,95109
753,9413,161266,95137
754,9432,161316,95157
755,9451,161407,95157
756,9470,161506,95146
757,9490,161564,95156
758,9509,161637,95186
759,9528,161662,95225
760,9547,161692,95246
761,9566,161742,95254
762,9585,161826,95254
763,9603,161924,95278
764,9623,161969,95253
765,9643,161923,95248
766,9662,161752,95212
767,9681,161505,95168
768,9700,161233,95111
769,9719,161051,95074
770,9738,160907,95012
771,9758,160843,94986
772,9777,160745,94965
773,9796,160662,94955
774,9815,160581,94963
775,9834,160541,94956
776,9853,160494,94956
777,9871,160468,94927
778,9891,160501,94906
779,9911,160502,94879
780,9930,160501,94909
781,9949,160475,94915
782,9968,160472,94925
783,9987,160470,94927
784,10006,160466,94902
785,10025,160516,94902
786,10045,160558,94883
787,10064,160575,94921
788,10083,160629,94969
789,10102,160663,94982
790,10121,160700,94995
791,10140,160768,95002
792,10159,160851,94997
793,10179,160944,95013
794,10198,161021,95041
795,10216,161068,95049
796,10236,161138,95116
797,10254,161177,95110
798,10274,161249,95118
799,10293,161318,95135
800,10313,161421,95139
801,10332,161471,95155
802,10351,161539,95179
803,10370,161586,95225
804,10389,161626,95250
805,10408,161675,95243
806,10427,161775,95257
807,10446,161839,95255
808,10466,161757,95207
809,10485,161572,95171
810,10504,161288,95127
811,10523,161062,95090
812,10542,160900,95043
813,10561,160790,95006
814,10580,160765,94990
815,10600,160710,94958
816,10619,160669,94961
817,10638,160609,94953
818,10656,160542,94979
819,10675,160503,94965
820,10694,160534,94970
821,10714,160595,94956
822,10734,160678,94948
823,10753,160715,94985
824,10771,160775,95002
825,10791,160784,95052
826,10810,160819,95068
827,10829,160851,95061
828,10848,160909,95057
829,10868,161007,95066
830,10887,161051,95071
831,10906,161113,95105
832,10925,161126,95110
833,10944,161168,95141
834,10963,161201,95165
835,10982,161283,95158
836,11001,161370,95158
837,11021,161451,95153
838,11040,161506,95186
839,11059,161501,95204
840,11078,161542,95250
841,11097,161587,95251
842,11116,161653,95271
843,11135,161726,95251
844,11155,161794,95256
845,11174,161830,95252
846,11193,161875,95280
847,11212,161818,95270
848,11231,161664,95239
849,11250,161431,95202
850,11269,161192,95115
851,11288,161026,95059
852,11308,160852,95001
853,11327,160724,94987
854,11346,160629,94999
855,11365,160550,95001
856,11384,160482,95002
857,11403,160478,94989
858,11422,160489,94955
859,11442,160475,94959
860,11461,160483,94962
861,11480,160512,94991
862,11499,160536,95048
863,11518,160614,95046
864,11537,160665,95068
865,11556,160714,95048
866,11576,160798,95052
867,11595,160809,95058
868,11614,160875,95088
869,11633,160912,95133
870,11652,160940,95128
871,11671,160994,95151
872,11690,161059,95156
873,11710,161183,95156
874,11728,161246,95174
875,11747,161305,95200
876,11767,161307,95239
877,11786,161356,95223
878,11805,161364,95242
879,11824,161459,95244
880,11843,161528,95263
881,11863,161603,95248
882,11882,161654,95283
883,11901,161686,95305
884,11920,161707,95356
885,11939,161774,95357
886,11958,161868,95370
887,11977,161906,95363
888,11997,161917,95331
889,12016,161779,95285
890,12035,161524,95233
891,12054,161260,95205
892,12073,160984,95151
893,12092,160812,95104
894,12111,160676,95050
895,12131,160632,95017
896,12150,160552,95008
897,12169,160493,95006
898,12188,160418,95012
899,12207,160361,95018
900,12226,160286,94992
901,12245,160299,94978
902,12264,160354,94972
903,12284,160403,94979
904,12303,160471,95033
905,12322,160500,95048
906,12341,160557,95085
907,12360,160590,95076
908,12379,160644,95084
909,12398,160689,95072
910,12418,160735,95047
911,12437,160777,95068
912,12456,160785,95070
913,12475,160798,95125
914,12494,160812,95112
915,12513,160873,95127
916,12532,160953,95107
917,12552,161056,95137
918,12571,161127,95161
919,12590,161178,95183
920,12609,161224,95222
921,12628,161284,95245
922,12647,161353,95275
923,12666,161465,95277
924,12685,161580,95275
925,12705,161657,95288
926,12724,161768,95326
927,12743,161814,95366
928,12762,161884,95417
929,12781,161925,95417
930,12799,162014,95421
931,12818,162069,95411
932,12839,162012,95375
933,12858,161839,95337
934,12877,161556,95269
935,12896,161242,95243
936,12915,161004,95182
937,12934,160855,95141
938,12953,160746,95101
939,12973,160704,95083
940,12992,160625,95049
941,13011,160538,95045
942,13030,160460,95066
943,13049,160400,95049
944,13068,160360,95028
945,13087,160371,95029
946,13106,160455,95028
947,13126,160521,95037
948,13145,160586,95078
949,13164,160643,95101
950,13183,160682,95122
951,13202,160714,95122
952,13221,160741,95128
953,13240,160783,95100
954,13260,160815,95087
955,13279,160850,95123
956,13298,160885,95147
957,13317,160925,95195
958,13336,160966,95201
959,13355,161061,95199
960,13374,161151,95206
961,13394,161277,95228
962,13413,161335,95236
963,13432,161437,95276
964,13451,161475,95337
965,13470,161553,95351
966,13489,161598,95363
967,13508,161704,95359
968,13527,161801,95368
969,13547,161861,95373
970,13566,161920,95403
971,13585,161968,95432
972,13604,162044,95481
973,13623,162111,95492
974,13642,162202,95504
975,13661,162287,95511
976,13681,162299,95482
977,13700,162175,95458
978,13719,161894,95424
979,13738,161633,95378
980,13757,161361,95318
981,13776,161183,95277
982,13795,161087,95219
983,13815,161037,95214
984,13834,160968,95168
985,13853,160891,95188
986,13871,160827,95187
987,13891,160752,95174
988,13910,160708,95158
989,13929,160724,95145
990,13948,160808,95160
991,13968,160893,95156
992,13987,160988,95215
993,14006,161059,95266
994,14025,161099,95296
995,14044,161149,95314
996,14063,161226,95296
997,14082,161289,95309
998,14102,161383,95327
999,14121,161451,95336
1000,14140,161506,95378
1001,14159,161548,95413
1002,14178,161583,95426
1003,14197,161671,95423
1004,14216,161767,95435
1005,14236,161841,95443
1006,14255,161918,95457
1007,14274,161969,95477
1008,14293,162022,95530
1009,14312,162063,95531
1010,14331,162119,95566
1011,14350,162195,95547
1012,14370,162291,95537
1013,14389,162364,95556
1014,14408,162393,95565
1015,14427,162436,95606
1016,14446,162455,95620
1017,14465,162426,95592
1018,14484,162294,95543
1019,14503,162076,95462
1020,14523,161808,95379
1021,14542,161587,95342
1022,14561,161396,95329
1023,14579,161286,95325
1024,14599,161183,95308
1025,14618,161178,95315
1026,14637,161169,95263
1027,14657,161147,95249
1028,14676,161159,95273
1029,14695,161125,95296
1030,14714,161167,95328
1031,14733,161185,95331
1032,14752,161290,95348
1033,14771,161350,95328
1034,14791,161423,95331
1035,14810,161452,95335
1036,14829,161465,95343
1037,14848,161478,95391
1038,14867,161490,95407
1039,14886,161582,95395
1040,14905,161622,95407
1041,14924,161719,95406
1042,14943,161757,95430
1043,14963,161819,95452
1044,14982,161870,95502
1045,15001,161897,95518
1046,15020,161991,95540
1047,15039,162075,95527
1048,15058,162172,95526
1049,15078,162234,95529
1050,15097,162275,95537
1051,15116,162313,95590
1052,15135,162340,95628
1053,15153,162406,95652
1054,15173,162512,95651
1055,15192,162611,95670
1056,15212,162650,95629
1057,15231,162584,95637
1058,15250,162398,95587
1059,15269,162120,95570
1060,15288,161827,95483
1061,15307,161652,95453
1062,15326,161552,95428
1063,15346,161490,95404
1064,15365,161459,95385
1065,15384,161419,95398
1066,15403,161353,95423
1067,15422,161299,95406
1068,15441,161294,95403
1069,15460,161302,95378
1070,15480,161336,95358
1071,15499,161389,95388
1072,15518,161456,95407
1073,15537,161491,95455
1074,15556,161526,95481
1075,15575,161555,95469
1076,15594,161610,95451
1077,15613,161697,95466
1078,15633,161721,95456
1079,15652,161766,95494
1080,15671,161800,95511
1081,15690,161830,95525
1082,15709,161872,95542
1083,15728,161961,95535
1084,15747,162021,95548
1085,15767,162107,95543
1086,15786,162161,95563
1087,15805,162222,95605
1088,15824,162282,95659
1089,15843,162334,95672
1090,15862,162416,95676
1091,15881,162512,95683
1092,15901,162575,95681
1093,15920,162614,95686
1094,15939,162669,95704
1095,15958,162712,95747
1096,15977,162763,95780
1097,15996,162808,95768
1098,16015,162779,95730
1099,16035,162645,95666
1100,16054,162314,95586
1101,16073,162025,95516
1102,16092,161762,95519
1103,16111,161564,95462
1104,16130,161419,95448
1105,16149,161340,95395
1106,16168,161331,95376
1107,16188,161281,95354
1108,16207,161236,95352
1109,16226,161184,95363
1110,16245,161153,95366
1111,16264,161126,95375
1112,16283,161214,95395
1113,16302,161283,95371
1114,16322,161385,95370
1115,16341,161431,95396
1116,16360,161459,95406
1117,16379,161510,95460
1118,16398,161528,95469
1119,16417,161607,95464
1120,16436,161677,95473
1121,16456,161791,95483
1122,16475,161855,95507
1123,16494,161906,95523
1124,16513,161948,95568
1125,16532,162001,95589
1126,16551,162072,95604
1127,16570,162156,95611
1128,16590,162270,95600
1129,16609,162331,95610
1130,16628,162371,95643
1131,16647,162410,95667
1132,16666,162457,95687
1133,16685,162487,95681
1134,16704,162516,95670
1135,16723,162586,95674
1136,16743,162650,95653
1137,16762,162682,95686
1138,16781,162741,95739
1139,16800,162814,95772
1140,16819,162811,95754
1141,16838,162734,95724
1142,16857,162513,95638
1143,16877,162228,95565
1144,16896,161946,95502
1145,16915,161713,95461
1146,16934,161546,95469
1147,16953,161412,95446
1148,16972,161347,95415
1149,16991,161281,95384
1150,17011,161264,95361
1151,17030,161212,95358
1152,17049,161162,95337
1153,17068,161143,95375
1154,17087,161153,95405
1155,17106,161209,95400
1156,17125,161296,95407
1157,17144,161422,95410
1158,17164,161478,95399
1159,17183,161490,95415
1160,17202,161492,95435
1161,17221,161495,95454
1162,17240,161482,95437
1163,17259,161508,95417
1164,17278,161537,95404
1165,17298,161599,95406
1166,17317,161634,95416
1167,17336,161662,95440
1168,17355,161719,95500
1169,17374,161755,95501
1170,17393,161836,95513
1171,17412,161921,95514
1172,17432,162040,95521
1173,17451,162088,95537
1174,17470,162148,95554
1175,17489,162175,95607
1176,17508,162217,95608
1177,17527,162266,95629
1178,17546,162340,95620
1179,17565,162459,95637
1180,17585,162548,95633
1181,17604,162616,95687
1182,17623,162603,95672
1183,17642,162509,95680
1184,17661,162232,95589
1185,17680,161934,95501
1186,17699,161646,95410
1187,17719,161396,95342
1188,17738,161235,95321
1189,17757,161096,95315
1190,17776,161041,95350
1191,17795,160945,95316
1192,17814,160929,95298
1193,17833,160901,95245
1194,17853,160885,95242
1195,17872,160848,95218
1196,17891,160863,95232
1197,17910,160910,95299
1198,17929,160967,95303
1199,17948,161050,95327
1200,17967,161100,95313
1201,17987,161221,95328
1202,18006,161248,95322
1203,18025,161300,95349
1204,18044,161309,95385
1205,18063,161340,95393
1206,18082,161380,95404
1207,18101,161451,95402
1208,18120,161547,95406
1209,18140,161620,95415
1210,18159,161695,95446
1211,18178,161753,95484
1212,18197,161782,95514
1213,18216,161852,95538
1214,18235,161948,95556
1215,18254,162026,95539
1216,18274,162114,95525
1217,18293,162139,95536
1218,18312,162204,95568
1219,18331,162247,95606
1220,18350,162282,95628
1221,18369,162331,95614
1222,18388,162214,95563
1223,18408,162012,95479
1224,18427,161667,95398
1225,18446,161364,95346
1226,18465,161123,95358
1227,18484,160987,95327
1228,18503,160924,95298
1229,18522,160887,95251
1230,18541,160894,95239
1231,18561,160842,95224
1232,18580,160826,95236
1233,18599,160784,95239
1234,18618,160794,95271
1235,18637,160839,95288
1236,18656,160931,95290
1237,18675,161034,95297
1238,18695,161130,95288
1239,18714,161162,95309
1240,18733,161169,95319
1241,18752,161195,95359
1242,18771,161228,95386
1243,18790,161291,95381
1244,18809,161361,95361
1245,18829,161450,95369
1246,18848,161502,95393
1247,18867,161545,95421
1248,18886,161598,95456
1249,18905,161650,95477
1250,18924,161701,95491
1251,18943,161773,95482
1252,18962,161863,95487
1253,18982,161934,95485
1254,19001,161961,95507
1255,19020,161995,95535
1256,19039,162025,95565
1257,19058,162084,95558
1258,19077,162166,95569
1259,19096,162224,95558
1260,19116,162138,95510
1261,19135,161872,95457
1262,19154,161515,95370
1263,19173,161179,95344
1264,19192,160876,95289
1265,19211,160729,95235
1266,19230,160629,95208
1267,19250,160615,95178
1268,19269,160554,95159
1269,19288,160520,95164
1270,19307,160463,95197
1271,19326,160430,95181
1272,19345,160442,95198
1273,19364,160501,95188
1274,19384,160618,95203
1275,19403,160711,95221
1276,19422,160821,95251
1277,19441,160879,95295
1278,19460,160900,95305
1279,19479,160962,95316
1280,19498,161045,95310
1281,19517,161124,95325
1282,19537,161219,95328
1283,19556,161291,95379
1284,19575,161373,95402
1285,19594,161448,95492
1286,19613,161541,95488
1287,19632,161660,95519
1288,19651,161754,95501
1289,19671,161872,95525
1290,19690,161948,95562
1291,19709,162019,95578
1292,19728,162057,95621
1293,19747,162120,95621
1294,19766,162162,95624
1295,19785,162226,95613
1296,19805,162291,95616
1297,19824,162326,95582
1298,19843,162342,95624
1299,19862,162304,95638
1300,19881,162114,95595
1301,19900,161776,95503
1302,19919,161420,95399
1303,19938,161146,95314
1304,19958,160927,95258
1305,19977,160750,95243
1306,19996,160680,95236
1307,20015,160598,95258
1308,20034,160525,95239
1309,20053,160515,95220
1310,20072,160525,95218
1311,20092,160542,95225
1312,20111,160604,95252
1313,20130,160667,95272
1314,20149,160789,95347
1315,20168,160894,95352
1316,20187,160990,95381
1317,20206,161139,95399
1318,20226,161251,95387
1319,20245,161278,95396
1320,20264,161306,95428
1321,20283,161330,95453
1322,20302,161358,95463
1323,20321,161385,95473
1324,20340,161433,95458
1325,20360,161500,95451
1326,20379,161544,95465
1327,20398,161592,95482
1328,20417,161631,95507
1329,20436,161657,95519
1330,20455,161657,95510
1331,20474,161754,95507
1332,20493,161843,95532
1333,20513,161900,95520
1334,20532,161986,95565
1335,20551,162028,95592
1336,20570,162085,95631
1337,20589,162151,95645
1338,20608,162260,95649
1339,20627,162347,95644
1340,20647,162394,95641
1341,20666,162302,95594
1342,20685,162038,95543
1343,20704,161655,95470
1344,20723,161228,95383
1345,20742,160886,95276
1346,20761,160653,95206
1347,20781,160494,95163
1348,20800,160360,95125
1349,20819,160270,95106
1350,20838,160157,95122
1351,20857,160122,95119
1352,20876,160032,95106
1353,20895,160039,95072
1354,20914,160104,95065
1355,20934,160140,95065
1356,20953,160221,95100
1357,20972,160305,95140
1358,20991,160325,95178
1359,21010,160360,95174
1360,21029,160439,95136
1361,21048,160482,95149
1362,21068,160534,95136
1363,21087,160610,95190
1364,21106,160676,95213
1365,21125,160722,95253
1366,21144,160779,95270
1367,21163,160864,95283
1368,21182,160969,95280
1369,21202,161070,95277
1370,21221,161168,95322
1371,21240,161241,95353
1372,21259,161316,95397
1373,21278,161377,95416
1374,21297,161470,95435
1375,21316,161507,95400
1376,21336,161558,95399
1377,21355,161591,95390
1378,21374,161634,95422
1379,21393,161676,95486
1380,21412,161722,95496
1381,21431,161777,95517
1382,21450,161872,95502
1383,21469,161915,95481
1384,21489,161769,95421
1385,21508,161439,95345
1386,21527,160990,95239
1387,21546,160574,95182
1388,21565,160273,95130
1389,21584,160132,95080
1390,21603,160086,95052
1391,21623,160034,95031
1392,21642,159972,95026
1393,21661,159916,95005
1394,21680,159855,95033
1395,21699,159790,95012
1396,21718,159792,94993
1397,21737,159830,94993
1398,21757,159935,95006
1399,21776,160010,95010
1400,21795,160116,95073
1401,21814,160170,95106
1402,21833,160215,95131
1403,21852,160272,95119
1404,21871,160285,95107
1405,21890,160369,95127
1406,21910,160441,95117
1407,21929,160546,95163
1408,21948,160615,95171
1409,21967,160669,95220
1410,21986,160718,95224
1411,22005,160814,95240
1412,22024,160895,95237
1413,22044,160977,95229
1414,22063,161039,95287
1415,22082,161077,95313
1416,22101,161178,95357
1417,22120,161219,95356
1418,22139,161316,95378
1419,22158,161417,95383
1420,22178,161528,95392
1421,22197,161622,95420
1422,22216,161684,95425
1423,22235,161652,95434
1424,22254,161405,95366
1425,22273,161027,95272
1426,22292,160616,95122
1427,22312,160248,95038
1428,22331,159984,94975
1429,22350,159857,94991
1430,22369,159807,95006
1431,22388,159758,95004
1432,22407,159708,94992
1433,22426,159712,94956
1434,22445,159725,94944
1435,22465,159746,94941
1436,22484,159801,94975
1437,22503,159882,95025
1438,22522,159987,95051
1439,22541,160076,95086
1440,22560,160161,95113
1441,22579,160268,95108
1442,22599,160366,95081
1443,22618,160398,95114
1444,22637,160452,95140
1445,22656,160495,95185
1446,22675,160539,95202
1447,22694,160674,95205
1448,22713,160749,95225
1449,22733,160870,95248
1450,22752,160986,95284
1451,22771,161095,95307
1452,22790,161187,95369
1453,22809,161205,95365
1454,22828,161222,95363
1455,22847,161298,95354
1456,22866,161360,95354
1457,22886,161397,95345
1458,22905,161413,95363
1459,22924,161408,95389
1460,22943,161447,95404
1461,22962,161447,95393
1462,22981,161289,95326
1463,23000,160948,95210
1464,23020,160489,95065
1465,23039,160049,94990
1466,23058,159693,94942
1467,23077,159479,94907
1468,23096,159351,94881
1469,23115,159298,94882
1470,23134,159270,94819
1471,23154,159215,94816
1472,23173,159182,94811
1473,23192,159171,94825
1474,23211,159198,94876
1475,23230,159243,94887
1476,23249,159351,94920
1477,23268,159514,94923
1478,23288,159631,94916
1479,23307,159700,94935
1480,23326,159750,94951
1481,23345,159787,95009
1482,23364,159820,95033
1483,23383,159898,95033
1484,23402,159971,95025
1485,23421,160067,95026
1486,23441,160130,95053
1487,23460,160258,95099
1488,23479,160363,95141
1489,23498,160486,95194
1490,23517,160569,95221
1491,23536,160725,95244
1492,23555,160915,95286
1493,23575,161068,95309
1494,23594,161189,95345
1495,23613,161242,95380
1496,23632,161342,95453
1497,23651,161446,95482
1498,23670,161592,95511
1499,23689,161721,95497
1500,23709,161822,95518
1501,23728,161793,95498
1502,23747,161550,95419
1503,23766,161160,95363
1504,23785,160706,95238
1505,23804,160358,95182
1506,23823,160165,95122
1507,23843,160078,95090
1508,23862,159980,95067
1509,23881,159915,95064
1510,23900,159819,95080
1511,23919,159753,95072
1512,23938,159729,95106
1513,23957,159818,95092
1514,23976,159931,95089
1515,23996,160044,95121
1516,24015,160202,95172
1517,24034,160318,95217
1518,24053,160424,95259
1519,24072,160518,95276
1520,24091,160577,95272
1521,24110,160686,95270
1522,24130,160736,95269
1523,24149,160788,95296
1524,24168,160837,95332
1525,24187,160899,95381
1526,24206,160970,95397
1527,24225,161081,95412
1528,24244,161177,95412
1529,24264,161255,95429
1530,24283,161305,95431
1531,24302,161384,95462
1532,24321,161423,95510
1533,24340,161513,95534
1534,24359,161607,95565
1535,24378,161670,95548
1536,24398,161768,95555
1537,24417,161838,95568
1538,24436,161906,95597
1539,24455,161980,95646
1540,24474,162024,95660
1541,24493,162083,95676
1542,24512,162076,95640
1543,24531,161900,95569
1544,24551,161505,95439
1545,24570,161111,95348
1546,24589,160692,95291
1547,24608,160428,95267
1548,24627,160276,95231
1549,24646,160211,95218
1550,24665,160200,95183
1551,24685,160157,95160
1552,24704,160114,95165
1553,24723,160082,95182
1554,24742,160079,95211
1555,24761,160087,95210
1556,24780,160197,95244
1557,24799,160341,95250
1558,24819,160505,95273
1559,24838,160616,95309
1560,24857,160700,95335
1561,24876,160758,95360
1562,24895,160794,95376
1563,24914,160872,95378
1564,24933,160944,95394
1565,24953,161046,95395
1566,24972,161132,95415
1567,24991,161208,95437
1568,25010,161288,95489
1569,25029,161345,95514
1570,25048,161394,95526
1571,25067,161485,95532
1572,25086,161648,95553
1573,25106,161739,95551
1574,25125,161800,95588
1575,25144,161860,95622
1576,25163,161920,95664
1577,25182,161970,95676
1578,25201,162030,95671
1579,25220,162146,95683
1580,25240,162241,95680
1581,25259,162299,95703
1582,25278,162352,95739
1583,25297,162319,95736
1584,25316,162093,95679
1585,25335,161792,95590
1586,25354,161439,95465
1587,25374,161091,95364
1588,25393,160846,95315
1589,25412,160682,95296
1590,25431,160599,95333
1591,25450,160554,95322
1592,25469,160543,95310
1593,25488,160524,95296
1594,25508,160552,95271
1595,25527,160553,95287
1596,25546,160612,95303
1597,25565,160693,95368
1598,25584,160800,95399
1599,25603,160913,95419
1600,25622,160996,95412
1601,25642,161111,95424
1602,25661,161180,95424
1603,25680,161236,95456
1604,25699,161264,95501
1605,25718,161319,95509
1606,25737,161358,95515
1607,25756,161431,95529
1608,25775,161531,95519
1609,25795,161590,95531
1610,25814,161654,95537
1611,25833,161704,95587
1612,25852,161788,95624
1613,25871,161847,95628
1614,25890,161928,95648
1615,25909,162017,95641
1616,25929,162093,95636
1617,25948,162147,95658
1618,25967,162184,95696
1619,25986,162251,95730
1620,26005,162296,95741
1621,26024,162398,95758
1622,26043,162355,95693
1623,26063,162154,95629
1624,26082,161796,95532
1625,26101,161425,95470
1626,26120,161098,95418
1627,26139,160873,95367
1628,26158,160750,95346
1629,26177,160660,95298
1630,26197,160621,95246
1631,26216,160562,95241
1632,26235,160510,95237
1633,26254,160468,95269
1634,26273,160422,95260
1635,26292,160452,95273
1636,26311,160568,95285
1637,26330,160744,95298
1638,26350,160854,95326
1639,26369,160945,95323
1640,26388,161000,95382
1641,26407,161013,95411
1642,26426,161047,95412
1643,26445,161107,95411
1644,26464,161216,95412
1645,26484,161290,95422
1646,26503,161349,95453
1647,26522,161419,95479
1648,26541,161454,95535
1649,26560,161519,95533
1650,26579,161626,95547
1651,26598,161713,95560
1652,26618,161794,95564
1653,26637,161837,95561
1654,26656,161868,95579
1655,26675,161901,95639
1656,26694,161947,95643
1657,26713,162033,95674
1658,26732,162109,95657
1659,26751,162166,95644
1660,26771,162053,95590
1661,26790,161753,95519
1662,26809,161326,95434
1663,26828,160929,95342
1664,26847,160625,95294
1665,26866,160432,95218
1666,26885,160345,95181
1667,26905,160251,95143
1668,26924,160201,95151
1669,26943,160122,95169
1670,26962,160075,95182
1671,26981,160038,95157
1672,27000,160071,95166
1673,27019,160151,95175
1674,27039,160292,95194
1675,27058,160421,95221
1676,27077,160493,95253
1677,27096,160587,95319
1678,27115,160629,95316
1679,27134,160704,95327
1680,27153,160695,95290
1681,27173,160811,95310
1682,27192,160866,95332
1683,27211,160943,95369
1684,27230,161050,95429
1685,27249,161124,95446
1686,27268,161167,95460
1687,27287,161268,95461
1688,27306,161403,95488
1689,27326,161494,95492
1690,27345,161579,95513
1691,27364,161605,95536
1692,27383,161638,95603
1693,27402,161682,95611
1694,27421,161818,95608
1695,27440,161907,95616
1696,27460,162031,95636
1697,27479,162103,95652
1698,27498,162011,95636
1699,27517,161770,95584
1700,27536,161360,95477
1701,27555,160974,95390
1702,27574,160635,95276
1703,27594,160370,95199
1704,27613,160197,95160
1705,27632,160125,95173
1706,27651,160064,95184
1707,27670,159982,95166
1708,27689,159929,95153
1709,27708,159893,95135
1710,27727,159997,95141
1711,27747,160065,95150
1712,27766,160213,95217
1713,27785,160285,95230
1714,27804,160359,95291
1715,27823,160456,95309
1716,27842,160546,95322
1717,27861,160645,95311
1718,27881,160712,95300
1719,27900,160745,95326
1720,27919,160782,95352
1721,27938,160842,95386
1722,27957,160877,95405
1723,27976,160976,95424
1724,27995,161065,95424
1725,28015,161135,95412
1726,28034,161178,95417
1727,28053,161217,95439
1728,28072,161285,95508
1729,28091,161356,95534
1730,28110,161421,95537
1731,28129,161508,95529
1732,28148,161600,95549
1733,28168,161664,95538
1734,28187,161749,95583
1735,28206,161814,95625
1736,28225,161882,95669
1737,28244,161934,95672
1738,28263,161932,95632
1739,28282,161749,95574
1740,28302,161409,95453
1741,28321,161013,95375
1742,28340,160629,95294
1743,28359,160389,95284
1744,28378,160204,95249
1745,28397,160161,95221
1746,28416,160143,95210
1747,28436,160124,95187
1748,28455,160089,95170
1749,28474,160077,95186
1750,28493,160056,95239
1751,28512,160055,95230
1752,28531,160128,95255
1753,28550,160259,95279
1754,28570,160432,95293
1755,28589,160521,95298
1756,28608,160579,95317
1757,28627,160644,95366
1758,28646,160695,95384
1759,28665,160758,95402
1760,28684,160830,95404
1761,28703,160923,95414
1762,28723,160998,95399
1763,28742,161052,95442
1764,28761,161104,95481
1765,28780,161183,95526
1766,28799,161248,95512
1767,28818,161343,95543
1768,28837,161473,95543
1769,28857,161570,95567
1770,28876,161661,95578
1771,28895,161722,95610
1772,28914,161757,95632
1773,28933,161784,95662
1774,28952,161857,95662
1775,28971,161913,95668
1776,28991,162019,95668
1777,29010,162073,95682
1778,29029,162087,95686
1779,29048,161997,95678
1780,29067,161748,95618
1781,29086,161342,95501
1782,29105,160924,95380
1783,29124,160602,95297
1784,29144,160367,95228
1785,29163,160201,95206
1786,29182,160067,95213
1787,29201,160013,95220
1788,29220,159989,95219
1789,29239,159967,95202
1790,29258,159995,95185
1791,29278,159978,95176
1792,29297,160050,95205
1793,29316,160164,95251
1794,29335,160290,95313
1795,29354,160405,95349
1796,29373,160569,95372
1797,29392,160714,95392
1798,29412,160826,95407
1799,29431,160916,95437
1800,29450,160986,95449
1801,29469,161017,95490
1802,29488,161059,95517
1803,29507,161164,95511
1804,29526,161235,95518
1805,29546,161324,95504
1806,29565,161363,95530
1807,29584,161421,95549
1808,29603,161470,95606
1809,29622,161533,95611
1810,29641,161565,95626
1811,29660,161643,95628
1812,29679,161760,95623
1813,29699,161810,95636
1814,29718,161905,95672
1815,29737,161985,95726
1816,29756,162049,95764
1817,29775,162113,95774
1818,29794,162185,95774
1819,29813,162138,95705
1820,29833,161864,95608
1821,29852,161475,95525
1822,29871,161086,95453
1823,29890,160753,95406
1824,29909,160538,95354
1825,29928,160440,95320
1826,29947,160385,95286
1827,29967,160309,95237
1828,29986,160215,95208
