sample_index,timestamp_ms,ir,red
0,1,157730,84384
1,1,157853,84394
2,1,157925,84417
3,2,157948,84455
4,2,157935,84456
5,3,157921,84436
6,3,157935,84435
7,3,157949,84408
8,3,158005,84394
9,3,158008,84434
10,4,158037,84451
11,4,158044,84486
12,4,158060,84475
13,4,158155,84468
14,4,158223,84460
15,4,158271,84461
16,5,158319,84496
17,5,158349,84500
18,5,158405,84542
19,5,158442,84548
20,5,158500,84549
21,5,158563,84524
22,5,158593,84486
23,6,158426,84454
24,6,158168,84405
25,6,157861,84352
26,6,157542,84284
27,7,157347,84229
28,7,157205,84182
29,7,157144,84165
30,7,157102,84174
31,8,157087,84193
32,8,157102,84243
33,9,157126,84251
34,9,157230,84281
35,9,157329,84292
36,9,157481,84293
37,9,157574,84343
38,9,157644,84357
39,9,157661,84406
40,9,157675,84408
41,9,157716,84404
42,9,157737,84387
43,10,157779,84390
44,10,157773,84394
45,10,157781,84418
46,10,157819,84459
47,10,157843,84446
48,10,157919,84451
49,10,157996,84457
50,10,158073,84485
51,10,158143,84483
52,10,158160,84504
53,11,158236,84548
54,11,158288,84581
55,11,158387,84562
56,11,158473,84574
57,11,158552,84559
58,11,158473,84560
59,11,158283,84496
60,11,157987,84477
61,11,157660,84388
62,11,157458,84347
63,11,157290,84295
64,12,157245,84278
65,12,157190,84269
66,12,157169,84289
67,12,157184,84338
68,12,157195,84329
69,12,157254,84347
70,12,157363,84350
71,12,157515,84366
72,12,157640,84390
73,12,157690,84425
74,12,157749,84461
75,13,157758,84476
76,13,157780,84464
77,13,157815,84460
78,13,157866,84452
79,13,157881,84451
80,13,157907,84482
81,13,157944,84544
82,13,157988,84541
83,13,158057,84550
84,13,158124,84539
85,13,158198,84539
86,14,158249,84542
87,14,158319,84576
88,14,158351,84639
89,14,158413,84637
90,14,158507,84659
91,14,158574,84652
92,14,158660,84655
93,14,158616,84623
94,14,158427,84586
95,14,158175,84555
96,14,157887,84482
97,14,157661,84435
98,14,157527,84400
99,15,157488,84366
100,15,157465,84340
101,15,157452,84380
102,15,157438,84416
103,15,157444,84401
104,15,157528,84418
105,15,157603,84431
106,15,157743,84440
107,15,157814,84446
108,15,157911,84479
109,15,157941,84513
110,15,157944,84520
111,16,157973,84504
112,16,157978,84503
113,16,158023,84480
114,16,158018,84486
115,16,158074,84497
116,16,158106,84555
117,16,158122,84561
118,16,158163,84578
119,16,158250,84569
120,17,158340,84560
121,17,158353,84550
122,17,158402,84595
123,17,158455,84622
124,17,158475,84641
125,17,158540,84653
126,17,158611,84634
127,17,158683,84651
128,17,158625,84611
129,17,158493,84586
130,17,158260,84552
131,18,158054,84515
132,18,157852,84522
133,18,157759,84445
134,18,157764,84429
135,18,157718,84427
136,18,157723,84428
137,18,157725,84461
138,18,157730,84474
139,18,157763,84467
140,18,157857,84486
141,18,157999,84493
142,18,158097,84504
143,19,158168,84532
144,19,158201,84559
145,19,158190,84567
146,19,158201,84554
147,19,158201,84540
148,19,158263,84547
149,19,158293,84520
150,19,158319,84550
151,19,158333,84580
152,19,158356,84589
153,19,158398,84616
154,19,158455,84610
155,19,158536,84609
156,19,158612,84589
157,20,158661,84638
158,20,158693,84653
159,20,158738,84693
160,20,158779,84723
161,20,158876,84704
162,20,158960,84691
163,20,158967,84679
164,20,158890,84659
165,20,158665,84629
166,20,158435,84576
167,20,158209,84526
168,20,158054,84485
169,20,157989,84451
170,20,157928,84424
171,20,157910,84439
172,21,157885,84469
173,21,157880,84478
174,21,157903,84477
175,21,157985,84464
176,21,158076,84482
177,21,158167,84486
178,21,158283,84524
179,21,158315,84566
180,21,158346,84594
181,21,158386,84574
182,21,158395,84576
183,21,158454,84558
184,21,158447,84553
185,21,158481,84565
186,21,158471,84603
187,22,158496,84612
188,22,158539,84620
189,22,158583,84610
190,22,158686,84609
191,22,158739,84616
192,22,158784,84641
193,22,158800,84681
194,22,158840,84688
195,22,158914,84698
196,22,158976,84706
197,22,159074,84697
198,22,159134,84697
199,22,159170,84741
200,22,159186,84760
201,23,159092,84733
202,23,158944,84680
203,23,158730,84601
204,23,158553,84540
205,23,158367,84515
206,23,158241,84506
207,23,158192,84510
208,23,158110,84504
209,23,158146,84514
210,23,158178,84490
211,23,158215,84479
212,23,158260,84474
213,23,158299,84516
214,23,158365,84570
215,24,158428,84580
216,24,158527,84600
217,24,158593,84578
218,24,158639,84544
219,24,158589,84575
220,24,158589,84571
221,24,158572,84615
222,24,158570,84602
223,24,158626,84582
224,24,158682,84580
225,24,158744,84566
226,24,158756,84600
227,24,158789,84624
228,24,158804,84660
229,24,158845,84668
230,24,158921,84661
231,25,158983,84651
232,25,159047,84648
233,25,159066,84663
234,25,159106,84712
235,25,159143,84737
236,25,159195,84732
237,25,159255,84721
238,25,159325,84711
239,25,159245,84678
240,25,159076,84659
241,25,158830,84584
242,25,158588,84568
243,25,158394,84534
244,25,158276,84485
245,25,158244,84454
246,25,158233,84425
247,25,158193,84447
248,25,158168,84470
249,26,158175,84499
250,26,158171,84480
251,26,158255,84474
252,26,158367,84488
253,26,158440,84495
254,26,158502,84515
255,26,158526,84557
256,26,158517,84554
257,26,158534,84557
258,26,158528,84531
259,26,158560,84534
260,26,158572,84521
261,26,158580,84535
262,26,158594,84579
263,34,158613,84593
264,53,158651,84584
265,72,158698,84580
266,92,158769,84571
267,111,158823,84575
268,130,158873,84603
269,149,158880,84636
270,168,158906,84654
271,188,158990,84666
272,206,159032,84655
273,226,159123,84664
274,245,159158,84666
275,264,159200,84690
276,283,159253,84726
277,302,159269,84712
278,321,159200,84705
279,340,159085,84644
280,360,158886,84568
281,379,158649,84513
282,398,158427,84506
283,417,158277,84490
284,436,158178,84461
285,455,158136,84446
286,474,158122,84438
287,494,158132,84408
288,514,158122,84412
289,532,158135,84427
290,551,158147,84482
291,570,158188,84488
292,589,158296,84511
293,608,158404,84497
294,628,158459,84505
295,647,158489,84515
296,666,158471,84527
297,685,158482,84544
298,705,158470,84552
299,723,158491,84544
300,743,158532,84534
301,763,158558,84528
302,781,158614,84534
303,800,158626,84568
304,819,158637,84614
305,838,158694,84599
306,857,158747,84616
307,876,158838,84606
308,897,158892,84601
309,915,158953,84654
310,934,158988,84668
311,954,159014,84699
312,972,159054,84716
313,992,159109,84701
314,1010,159207,84689
315,1031,159268,84701
316,1049,159358,84719
317,1068,159364,84769
318,1087,159401,84788
319,1106,159442,84795
320,1125,159395,84755
321,1144,159293,84697
322,1164,159048,84617
323,1183,158828,84598
324,1202,158583,84580
325,1221,158430,84550
326,1240,158356,84542
327,1259,158306,84525
328,1279,158371,84497
329,1298,158359,84492
330,1317,158352,84493
331,1336,158346,84547
332,1355,158389,84551
333,1374,158451,84580
334,1393,158525,84559
335,1413,158661,84571
336,1432,158704,84588
337,1451,158715,84595
338,1470,158722,84630
339,1489,158712,84628
340,1508,158711,84630
341,1527,158728,84616
342,1547,158784,84602
343,1566,158798,84611
344,1585,158843,84622
345,1604,158839,84665
346,1623,158851,84674
347,1643,158917,84677
348,1662,158993,84671
349,1681,159060,84672
350,1700,159101,84673
351,1719,159135,84707
352,1739,159168,84759
353,1757,159202,84757
354,1776,159248,84768
355,1795,159337,84759
356,1815,159422,84768
357,1834,159458,84796
358,1853,159468,84809
359,1872,159495,84832
360,1891,159477,84810
361,1910,159403,84778
362,1929,159208,84713
363,1949,159004,84644
364,1968,158803,84603
365,1988,158654,84603
366,2006,158534,84602
367,2025,158460,84589
368,2044,158478,84562
369,2064,158511,84568
370,2083,158526,84553
371,2102,158530,84553
372,2121,158559,84582
373,2140,158597,84623
374,2159,158676,84659
375,2179,158747,84634
376,2197,158833,84648
377,2217,158874,84639
378,2236,158873,84644
379,2255,158861,84660
380,2274,158828,84696
381,2293,158825,84697
382,2313,158862,84670
383,2331,158943,84671
384,2351,158951,84651
385,2370,158973,84688
386,2389,158995,84714
387,2408,159009,84738
388,2427,159071,84746
389,2446,159102,84719
390,2466,159208,84729
391,2485,159224,84726
392,2504,159259,84750
393,2523,159282,84804
394,2543,159313,84816
395,2561,159374,84814
396,2580,159436,84806
397,2600,159522,84806
398,2620,159544,84810
399,2639,159510,84792
400,2658,159342,84786
401,2676,159130,84732
402,2696,158893,84681
403,2715,158721,84597
404,2735,158591,84568
405,2754,158481,84539
406,2773,158421,84528
407,2791,158391,84574
408,2810,158366,84577
409,2830,158392,84567
410,2848,158395,84552
411,2868,158471,84549
412,2887,158508,84563
413,2907,158587,84610
414,2925,158636,84669
415,2944,158672,84653
416,2964,158729,84656
417,2983,158764,84631
418,3002,158789,84631
419,3022,158774,84637
420,3040,158761,84638
421,3059,158762,84680
422,3078,158753,84678
423,3098,158813,84684
424,3116,158843,84688
425,3137,158921,84678
426,3156,158973,84688
427,3174,159002,84724
428,3194,159027,84771
429,3213,159045,84764
430,3232,159108,84760
431,3251,159191,84763
432,3270,159250,84776
433,3289,159289,84776
434,3309,159321,84800
435,3328,159361,84852
436,3347,159401,84850
437,3366,159459,84832
438,3385,159480,84819
439,3405,159369,84755
440,3423,159154,84729
441,3442,158892,84669
442,3461,158645,84653
443,3481,158450,84620
444,3500,158343,84560
445,3518,158294,84539
446,3538,158248,84533
447,3558,158247,84541
448,3576,158214,84571
449,3595,158217,84572
450,3615,158215,84593
451,3633,158298,84593
452,3652,158402,84594
453,3673,158477,84582
454,3691,158550,84634
455,3710,158557,84665
456,3730,158544,84674
457,3748,158560,84661
458,3768,158582,84641
459,3788,158629,84626
460,3806,158603,84625
461,3826,158609,84652
462,3844,158637,84680
463,3864,158645,84690
464,3883,158697,84709
465,3901,158747,84702
466,3922,158832,84700
467,3941,158882,84714
468,3959,158921,84727
469,3978,158952,84774
470,3998,158983,84780
471,4016,159036,84793
472,4036,159112,84801
473,4056,159197,84793
474,4075,159233,84810
475,4093,159273,84825
476,4113,159322,84869
477,4132,159353,84861
478,4151,159327,84858
479,4170,159219,84798
480,4190,159003,84719
481,4208,158730,84658
482,4227,158484,84623
483,4247,158269,84598
484,4266,158120,84597
485,4285,158060,84552
486,4304,158031,84544
487,4324,158084,84547
488,4342,158062,84551
489,4362,158078,84561
490,4381,158106,84618
491,4400,158166,84628
492,4418,158282,84657
493,4438,158405,84660
494,4458,158489,84675
495,4476,158568,84701
496,4496,158598,84726
497,4515,158613,84758
498,4534,158631,84766
499,4552,158677,84766
500,4571,158669,84739
501,4591,158727,84729
502,4610,158782,84759
503,4630,158794,84766
504,4649,158814,84816
505,4668,158847,84820
506,4687,158928,84822
507,4706,159017,84819
508,4725,159084,84814
509,4745,159152,84829
510,4764,159178,84871
511,4783,159226,84918
512,4801,159273,84916
513,4821,159357,84910
514,4840,159438,84914
515,4860,159492,84916
516,4879,159558,84921
517,4898,159523,84949
518,4917,159402,84942
519,4935,159204,84876
520,4955,158945,84777
521,4974,158729,84715
522,4993,158516,84646
523,5013,158335,84627
524,5032,158230,84640
525,5051,158168,84625
526,5070,158094,84616
527,5088,158080,84585
528,5108,158105,84569
529,5128,158103,84566
530,5147,158160,84590
531,5166,158228,84638
532,5185,158300,84663
533,5204,158351,84679
534,5223,158435,84675
535,5241,158500,84682
536,5262,158505,84664
537,5281,158537,84687
538,5300,158553,84704
539,5319,158533,84724
540,5338,158538,84723
541,5357,158569,84694
542,5376,158651,84719
543,5396,158679,84692
544,5415,158696,84717
545,5433,158714,84750
546,5452,158722,84768
547,5472,158761,84754
548,5491,158818,84752
549,5511,158906,84745
550,5530,158933,84750
551,5549,158950,84777
552,5568,159005,84807
553,5587,159023,84812
554,5606,159034,84777
555,5625,158935,84735
556,5644,158783,84664
557,5663,158494,84568
558,5683,158219,84529
559,5701,157974,84531
560,5721,157823,84503
561,5740,157728,84479
562,5759,157717,84450
563,5779,157728,84426
564,5798,157706,84419
565,5817,157730,84433
566,5835,157753,84490
567,5855,157821,84523
568,5874,157933,84532
569,5893,158058,84536
570,5913,158127,84530
571,5932,158188,84550
572,5951,158179,84546
573,5970,158162,84586
574,5989,158115,84575
575,6008,158138,84568
576,6027,158176,84540
577,6047,158229,84539
578,6066,158271,84581
579,6085,158279,84578
580,6104,158328,84620
581,6123,158322,84622
582,6142,158414,84624
583,6161,158489,84630
584,6181,158552,84611
585,6200,158612,84654
586,6219,158648,84671
587,6238,158690,84700
588,6257,158740,84708
589,6276,158782,84691
590,6295,158772,84659
591,6315,158600,84591
592,6334,158359,84554
593,6353,158050,84505
594,6372,157791,84466
595,6390,157588,84436
596,6409,157495,84387
597,6428,157490,84376
598,6448,157477,84354
599,6467,157459,84373
600,6486,157438,84408
601,6506,157447,84423
602,6525,157491,84430
603,6543,157610,84430
604,6563,157744,84437
605,6583,157844,84454
606,6601,157922,84492
607,6621,157958,84502
608,6640,157949,84523
609,6658,157960,84533
610,6677,157983,84507
611,6697,158016,84483
612,6717,158038,84490
613,6736,158060,84499
614,6755,158097,84554
615,6774,158150,84573
616,6792,158184,84603
617,6812,158270,84583
618,6832,158378,84591
619,6851,158433,84599
620,6870,158505,84620
621,6889,158540,84676
622,6908,158618,84709
623,6927,158694,84718
624,6946,158755,84704
625,6966,158882,84708
626,6984,158966,84728
627,7004,158926,84712
628,7023,158762,84715
629,7041,158483,84635
630,7061,158185,84574
631,7080,157914,84489
632,7100,157701,84417
633,7119,157527,84393
634,7138,157419,84391
635,7157,157369,84412
636,7175,157327,84402
637,7195,157334,84401
638,7214,157356,84389
639,7234,157457,84395
640,7253,157516,84420
641,7272,157611,84464
642,7291,157733,84530
643,7310,157806,84537
644,7329,157912,84562
645,7348,157956,84547
646,7368,158022,84525
647,7387,158031,84539
648,7406,158027,84560
649,7425,158042,84583
650,7444,158049,84594
651,7463,158122,84605
652,7482,158180,84605
653,7502,158263,84590
654,7521,158330,84626
655,7540,158365,84631
656,7559,158408,84690
657,7578,158449,84700
658,7597,158533,84713
659,7616,158626,84707
660,7636,158718,84707
661,7654,158792,84721
662,7674,158826,84749
663,7693,158861,84790
664,7712,158797,84746
665,7731,158630,84699
666,7750,158385,84609
667,7770,158085,84528
668,7788,157823,84484
669,7807,157605,84477
670,7827,157482,84470
671,7846,157399,84467
672,7865,157393,84435
673,7884,157427,84439
674,7904,157467,84416
675,7923,157502,84457
676,7942,157545,84475
677,7960,157624,84557
678,7980,157723,84563
679,7999,157892,84562
680,8018,157995,84587
681,8038,158058,84543
682,8057,158076,84588
683,8076,158061,84617
684,8095,158054,84637
685,8114,158047,84620
686,8133,158098,84609
687,8152,158153,84602
688,8172,158194,84616
689,8191,158248,84623
690,8210,158267,84655
691,8229,158304,84689
692,8248,158355,84709
693,8267,158429,84695
694,8286,158535,84709
695,8306,158610,84702
696,8325,158667,84735
697,8344,158710,84767
698,8363,158663,84777
699,8382,158543,84734
700,8401,158328,84634
701,8420,158068,84555
702,8440,157782,84485
703,8459,157571,84471
704,8478,157421,84489
705,8497,157334,84465
706,8516,157285,84462
707,8535,157323,84455
708,8555,157376,84436
709,8574,157403,84448
710,8593,157459,84482
711,8612,157548,84547
712,8631,157672,84567
713,8649,157787,84588
714,8669,157870,84587
715,8689,157991,84595
716,8708,158006,84590
717,8727,158034,84609
718,8746,158015,84645
719,8765,158027,84638
720,8784,158044,84642
721,8803,158083,84633
722,8823,158153,84623
723,8842,158201,84619
724,8861,158233,84645
725,8880,158274,84698
726,8899,158330,84725
727,8918,158417,84726
728,8937,158467,84712
729,8957,158565,84725
730,8976,158649,84730
731,8995,158712,84758
732,9014,158750,84821
733,9033,158749,84798
734,9052,158659,84768
735,9071,158469,84681
736,9091,158163,84586
737,9110,157848,84523
738,9129,157564,84497
739,9148,157353,84471
740,9167,157242,84447
741,9186,157204,84440
742,9205,157215,84444
743,9225,157253,84432
744,9244,157288,84447
745,9263,157321,84474
746,9282,157407,84518
747,9301,157494,84534
748,9320,157643,84578
749,9339,157786,84584
750,9359,157878,84574
751,9378,157908,84589
752,9397,157949,84604
753,9416,157944,84641
754,9435,157939,84624
755,9454,157983,84644
756,9473,158029,84637
757,9493,158094,84630
758,9512,158173,84653
759,9531,158198,84698
760,9550,158276,84729
761,9569,158316,84734
762,9588,158413,84738
763,9607,158505,84748
764,9627,158591,84749
765,9646,158675,84793
766,9665,158735,84790
767,9684,158778,84841
768,9703,158802,84859
769,9722,158897,84857
770,9741,158995,84863
771,9761,159089,84861
772,9780,159166,84873
773,9799,159225,84913
774,9818,159227,84948
775,9837,159089,84882
776,9856,158852,84820
777,9875,158532,84708
778,9895,158174,84614
779,9914,157881,84566
780,9933,157644,84546
781,9952,157516,84550
782,9971,157459,84544
783,9990,157468,84533
784,10009,157547,84543
785,10029,157580,84527
786,10048,157653,84545
787,10067,157729,84618
788,10086,157834,84661
789,10105,157963,84685
790,10124,158075,84676
791,10143,158188,84689
792,10163,158204,84667
793,10182,158232,84683
794,10201,158214,84712
795,10220,158211,84737
796,10239,158209,84727
797,10258,158251,84714
798,10277,158335,84725
799,10297,158370,84707
800,10316,158427,84732
801,10335,158471,84773
802,10354,158498,84803
803,10373,158557,84799
804,10392,158629,84807
805,10411,158735,84802
806,10431,158800,84805
807,10450,158862,84843
808,10469,158907,84883
809,10488,158943,84906
810,10507,159012,84924
811,10526,159113,84895
812,10546,159184,84922
813,10565,159238,84900
814,10584,159209,84879
815,10603,159023,84886
816,10622,158718,84820
817,10641,158380,84731
818,10660,158077,84636
819,10680,157876,84598
820,10699,157729,84559
821,10718,157640,84558
822,10737,157613,84586
823,10756,157602,84597
824,10775,157645,84617
825,10794,157723,84610
826,10814,157824,84620
827,10833,157963,84652
828,10852,158087,84676
829,10871,158181,84742
830,10890,158221,84737
831,10909,158284,84766
832,10928,158329,84720
833,10948,158371,84727
834,10967,158362,84701
835,10986,158340,84726
836,11005,158366,84764
837,11024,158384,84783
838,11043,158459,84775
839,11062,158522,84780
840,11082,158597,84773
841,11101,158666,84782
842,11120,158718,84812
843,11139,158757,84862
844,11158,158801,84867
845,11177,158898,84888
846,11196,158946,84877
847,11216,159062,84882
848,11235,159110,84884
849,11254,159161,84911
850,11273,159197,84953
851,11292,159265,84961
852,11311,159334,84976
853,11330,159392,84968
854,11350,159425,84940
855,11369,159246,84909
856,11388,158947,84827
857,11407,158584,84773
858,11426,158199,84698
859,11445,157937,84646
860,11464,157771,84566
861,11484,157682,84575
862,11503,157634,84564
863,11522,157603,84564
864,11541,157635,84621
865,11560,157626,84587
866,11579,157698,84606
867,11598,157850,84628
868,11618,157969,84636
869,11637,158098,84694
870,11656,158192,84715
871,11675,158239,84746
872,11694,158259,84749
873,11713,158293,84742
874,11732,158336,84718
875,11752,158346,84710
876,11771,158343,84721
877,11790,158348,84759
878,11809,158364,84765
879,11828,158417,84791
880,11847,158487,84770
881,11867,158588,84801
882,11886,158608,84787
883,11905,158699,84808
884,11924,158752,84867
885,11943,158800,84879
886,11962,158857,84892
887,11981,158923,84885
888,12001,159042,84872
889,12020,159115,84907
890,12039,159165,84917
891,12058,159209,84974
892,12077,159265,84977
893,12096,159347,84991
894,12115,159412,84963
895,12135,159388,84939
896,12154,159182,84863
897,12173,158856,84815
898,12192,158475,84759
899,12211,158117,84700
900,12230,157860,84642
901,12249,157706,84606
902,12269,157653,84559
903,12288,157629,84565
904,12307,157621,84564
905,12326,157632,84626
906,12345,157646,84635
907,12364,157749,84657
908,12383,157901,84661
909,12403,158041,84669
910,12422,158183,84699
911,12441,158261,84755
912,12460,158331,84783
913,12479,158330,84786
914,12498,158380,84760
915,12517,158421,84753
916,12537,158450,84747
917,12556,158460,84770
918,12575,158472,84791
919,12594,158512,84815
920,12613,158542,84833
921,12632,158614,84827
922,12651,158705,84815
923,12671,158788,84827
924,12690,158869,84857
925,12709,158913,84904
926,12728,158956,84934
927,12747,159020,84942
928,12766,159093,84936
929,12785,159205,84943
930,12805,159265,84944
931,12824,159338,84968
932,12843,159404,85011
933,12862,159450,85047
934,12881,159546,85067
935,12900,159612,85033
936,12920,159572,84993
937,12939,159335,84911
938,12958,158999,84863
939,12977,158622,84816
940,12996,158283,84729
941,13015,158063,84701
942,13034,157932,84657
943,13054,157917,84648
944,13073,157906,84647
945,13092,157902,84650
946,13111,157962,84702
947,13130,157989,84728
948,13149,158111,84745
949,13168,158253,84748
950,13188,158403,84764
951,13207,158516,84795
952,13226,158578,84818
953,13245,158619,84852
954,13264,158616,84840
955,13283,158625,84828
956,13302,158659,84821
957,13322,158681,84804
958,13341,158698,84825
959,13360,158715,84843
960,13379,158741,84889
961,13398,158789,84880
962,13417,158850,84874
963,13436,158947,84896
964,13456,159021,84882
965,13475,159083,84903
966,13494,159123,84940
967,13513,159179,84979
968,13532,159210,84990
969,13551,159287,84969
970,13570,159368,84974
971,13590,159449,84976
972,13609,159509,85012
973,13628,159577,85043
974,13647,159607,85066
975,13666,159607,85041
976,13685,159425,84975
977,13705,159191,84905
978,13724,158813,84805
979,13743,158458,84736
980,13762,158185,84724
981,13781,157985,84697
982,13800,157915,84680
983,13819,157914,84665
984,13839,157957,84645
985,13858,157993,84650
986,13877,158023,84680
987,13896,158086,84753
988,13915,158164,84759
989,13934,158323,84796
990,13953,158473,84792
991,13973,158585,84787
992,13992,158638,84800
993,14011,158632,84811
994,14030,158610,84848
995,14049,158573,84841
996,14068,158615,84830
997,14087,158629,84808
998,14107,158679,84804
999,14126,158703,84822
1000,14145,158750,84841
1001,14164,158765,84887
1002,14183,158808,84870
1003,14202,158912,84891
1004,14221,158984,84884
1005,14241,159048,84879
1006,14260,159095,84906
1007,14279,159129,84950
1008,14298,159176,84975
1009,14317,159235,84980
1010,14336,159312,84973
1011,14355,159425,84983
1012,14375,159489,84963
1013,14394,159433,84967
1014,14413,159199,84906
1015,14432,158862,84852
1016,14451,158502,84776
1017,14470,158168,84691
1018,14489,157966,84630
1019,14509,157787,84587
1020,14528,157704,84588
1021,14547,157686,84619
1022,14566,157656,84647
1023,14585,157679,84644
1024,14604,157746,84634
1025,14624,157856,84621
1026,14643,157949,84648
1027,14662,158084,84697
1028,14681,158186,84760
1029,14700,158257,84756
1030,14719,158336,84762
1031,14738,158366,84733
1032,14758,158391,84729
1033,14777,158384,84727
1034,14796,158378,84750
1035,14815,158370,84780
1036,14834,158385,84775
1037,14853,158424,84776
1038,14872,158507,84802
1039,14892,158597,84783
1040,14911,158641,84802
1041,14930,158717,84818
1042,14949,158744,84863
1043,14968,158783,84870
1044,14987,158845,84865
1045,15006,158928,84876
1046,15026,159014,84869
1047,15045,159069,84888
1048,15064,159115,84917
1049,15083,159172,84956
1050,15102,159212,84958
1051,15121,159287,84956
1052,15140,159266,84910
1053,15160,159075,84834
1054,15179,158748,84786
1055,15198,158329,84703
1056,15217,157970,84651
1057,15236,157707,84590
1058,15255,157529,84537
1059,15274,157444,84524
1060,15294,157421,84505
1061,15313,157410,84516
1062,15332,157407,84537
1063,15351,157421,84563
1064,15370,157453,84574
1065,15389,157578,84583
1066,15408,157750,84613
1067,15428,157875,84622
1068,15447,157995,84657
1069,15466,158038,84706
1070,15485,158046,84707
1071,15504,158066,84709
1072,15523,158063,84680
1073,15543,158115,84669
1074,15562,158135,84672
1075,15581,158176,84697
1076,15600,158208,84733
1077,15619,158221,84730
1078,15638,158299,84758
1079,15657,158374,84754
1080,15677,158465,84751
1081,15696,158530,84763
1082,15715,158592,84796
1083,15734,158639,84828
1084,15753,158688,84845
1085,15772,158773,84857
1086,15791,158870,84858
1087,15811,158959,84862
1088,15830,159028,84887
1089,15849,159102,84901
1090,15868,159145,84942
1091,15887,159120,84942
1092,15906,158997,84880
1093,15925,158732,84782
1094,15945,158391,84691
1095,15964,158026,84624
1096,15983,157705,84583
1097,16002,157483,84576
1098,16021,157350,84550
1099,16040,157313,84525
1100,16059,157321,84531
1101,16079,157390,84507
1102,16098,157409,84539
1103,16117,157439,84577
1104,16136,157514,84625
1105,16155,157616,84636
1106,16174,157780,84654
1107,16193,157932,84669
1108,16213,158037,84679
1109,16232,158076,84703
1110,16251,158050,84703
1111,16270,158052,84724
1112,16289,158028,84731
1113,16308,158057,84714
1114,16327,158112,84704
1115,16347,158142,84690
1116,16366,158216,84723
1117,16385,158218,84757
1118,16404,158274,84781
1119,16423,158361,84804
1120,16442,158434,84779
1121,16462,158522,84783
1122,16481,158577,84794
1123,16500,158646,84818
1124,16519,158679,84867
1125,16538,158762,84885
1126,16557,158785,84897
1127,16576,158865,84892
1128,16596,159019,84903
1129,16615,159096,84911
1130,16634,159143,84924
1131,16653,159068,84906
1132,16672,158800,84856
1133,16691,158469,84781
1134,16710,158077,84654
1135,16730,157762,84577
1136,16749,157523,84525
1137,16768,157355,84525
1138,16787,157286,84555
1139,16806,157263,84531
1140,16825,157291,84547
1141,16844,157326,84541
1142,16864,157391,84539
1143,16883,157484,84564
1144,16902,157591,84610
1145,16921,157716,84667
1146,16940,157814,84685
1147,16959,157900,84681
1148,16978,157964,84671
1149,16998,157985,84673
1150,17017,157991,84668
1151,17036,157950,84682
1152,17055,157950,84706
1153,17074,157951,84708
1154,17093,158005,84718
1155,17112,158072,84702
1156,17132,158134,84695
1157,17151,158182,84721
1158,17170,158223,84735
1159,17189,158267,84774
1160,17208,158290,84791
1161,17227,158374,84794
1162,17246,158462,84789
1163,17266,158531,84795
1164,17285,158605,84820
1165,17304,158660,84848
1166,17323,158729,84890
1167,17342,158764,84889
1168,17361,158826,84873
1169,17380,158783,84841
1170,17400,158569,84747
1171,17419,158228,84671
1172,17438,157819,84606
1173,17457,157480,84563
1174,17476,157217,84518
1175,17495,157097,84473
1176,17514,157050,84449
1177,17534,157049,84438
1178,17553,157051,84446
1179,17572,157033,84473
1180,17591,157090,84520
1181,17610,157165,84523
1182,17629,157289,84541
1183,17648,157483,84571
1184,17668,157578,84564
1185,17687,157682,84593
1186,17706,157702,84628
1187,17725,157721,84636
1188,17744,157686,84633
1189,17763,157718,84610
1190,17782,157749,84609
1191,17802,157760,84589
1192,17821,157816,84617
1193,17840,157834,84658
1194,17859,157867,84676
1195,17878,157945,84707
1196,17897,158010,84682
1197,17917,158124,84701
1198,17936,158176,84696
1199,17955,158225,84718
1200,17974,158266,84768
1201,17993,158308,84775
1202,18012,158378,84785
1203,18031,158460,84792
1204,18051,158584,84811
1205,18070,158643,84791
1206,18089,158718,84821
1207,18108,158787,84876
1208,18127,158771,84850
1209,18146,158633,84809
1210,18165,158355,84688
1211,18185,158010,84597
1212,18204,157605,84515
1213,18223,157270,84462
1214,18242,157031,84458
1215,18261,156871,84429
1216,18280,156802,84409
1217,18299,156819,84402
1218,18319,156835,84391
1219,18338,156834,84395
1220,18357,156866,84404
1221,18376,156910,84478
1222,18395,157036,84495
1223,18414,157185,84516
1224,18433,157334,84536
1225,18453,157465,84539
1226,18472,157506,84537
1227,18491,157512,84559
1228,18510,157515,84569
1229,18529,157495,84565
1230,18548,157524,84575
1231,18567,157555,84562
1232,18587,157629,84553
1233,18606,157651,84573
1234,18625,157701,84607
1235,18644,157753,84652
1236,18663,157802,84656
1237,18682,157895,84661
1238,18701,158016,84662
1239,18721,158083,84672
1240,18740,158175,84696
1241,18759,158245,84722
1242,18778,158303,84764
1243,18797,158357,84767
1244,18816,158440,84788
1245,18835,158556,84786
1246,18855,158626,84777
1247,18874,158721,84822
1248,18893,158787,84869
1249,18912,158848,84875
1250,18931,158874,84856
1251,18950,158704,84790
1252,18969,158421,84698
1253,18989,158050,84602
1254,19008,157674,84533
1255,19027,157338,84513
1256,19046,157117,84486
1257,19065,156988,84475
1258,19084,156962,84450
1259,19104,156988,84425
1260,19123,157009,84429
1261,19142,157034,84448
1262,19161,157101,84493
1263,19180,157168,84538
1264,19199,157316,84567
1265,19218,157466,84572
1266,19238,157635,84588
1267,19257,157736,84607
1268,19276,157770,84580
1269,19295,157777,84660
1270,19314,157768,84645
1271,19333,157764,84636
1272,19352,157789,84635
1273,19372,157844,84616
1274,19391,157878,84629
1275,19410,157916,84642
1276,19429,157975,84702
1277,19448,158019,84690
1278,19467,158116,84724
1279,19486,158203,84721
1280,19506,158314,84724
1281,19525,158371,84755
1282,19544,158420,84750
1283,19563,158477,84808
1284,19582,158539,84814
1285,19601,158627,84841
1286,19620,158709,84833
1287,19640,158801,84838
1288,19659,158886,84863
1289,19678,158960,84885
1290,19697,159020,84941
1291,19716,159089,84948
1292,19735,159157,84943
1293,19754,159044,84866
1294,19774,158792,84766
1295,19793,158411,84698
1296,19812,157995,84624
1297,19831,157660,84597
1298,19850,157420,84555
1299,19869,157305,84514
1300,19888,157297,84493
1301,19908,157307,84484
1302,19927,157326,84504
1303,19946,157328,84530
1304,19965,157366,84574
1305,19984,157459,84582
1306,20003,157587,84590
1307,20022,157770,84634
1308,20042,157899,84634
1309,20061,157988,84672
1310,20080,158013,84669
1311,20099,158018,84701
1312,20118,157980,84698
1313,20137,158004,84683
1314,20156,158051,84658
1315,20176,158053,84652
1316,20195,158106,84691
1317,20214,158135,84719
1318,20233,158161,84733
1319,20252,158202,84754
1320,20271,158298,84741
1321,20291,158403,84733
1322,20310,158457,84739
1323,20329,158533,84791
1324,20348,158582,84822
1325,20367,158628,84836
1326,20386,158664,84847
1327,20405,158758,84843
1328,20425,158873,84839
1329,20444,158921,84853
1330,20463,159000,84871
1331,20482,159054,84930
1332,20501,159121,84940
1333,20520,159136,84917
1334,20539,158991,84849
1335,20559,158715,84768
1336,20578,158338,84661
1337,20597,157974,84595
1338,20616,157632,84562
1339,20635,157427,84536
1340,20654,157312,84511
1341,20673,157285,84482
1342,20693,157317,84476
1343,20712,157339,84495
1344,20731,157348,84494
1345,20750,157381,84536
1346,20769,157447,84563
1347,20788,157594,84594
1348,20807,157735,84594
1349,20827,157902,84620
1350,20846,157964,84618
1351,20865,158010,84633
1352,20884,158017,84692
1353,20903,158007,84678
1354,20922,158015,84678
1355,20941,158036,84657
1356,20961,158090,84644
1357,20980,158128,84670
1358,20999,158167,84669
1359,21018,158183,84725
1360,21037,158229,84735
1361,21056,158331,84736
1362,21075,158403,84742
1363,21095,158491,84746
1364,21114,158553,84763
1365,21133,158600,84787
1366,21152,158645,84846
1367,21171,158705,84821
1368,21190,158788,84851
1369,21209,158890,84827
1370,21229,158977,84843
1371,21248,159041,84874
1372,21267,159122,84894
1373,21286,159139,84913
1374,21305,159002,84854
1375,21324,158724,84761
1376,21343,158389,84669
1377,21363,158032,84563
1378,21382,157694,84517
1379,21401,157463,84501
1380,21420,157301,84504
1381,21439,157244,84509
1382,21458,157236,84476
1383,21477,157305,84472
1384,21497,157319,84456
1385,21516,157374,84504
1386,21535,157406,84537
1387,21554,157520,84591
1388,21573,157639,84607
1389,21592,157805,84621
1390,21611,157974,84631
1391,21631,158035,84634
1392,21650,158055,84652
1393,21669,158070,84688
1394,21688,158062,84681
1395,21707,158079,84686
1396,21726,158101,84669
1397,21746,158194,84663
1398,21765,158241,84674
1399,21784,158288,84701
1400,21803,158335,84744
1401,21822,158368,84773
1402,21841,158453,84767
1403,21860,158552,84788
1404,21880,158695,84774
1405,21899,158726,84782
1406,21918,158798,84816
1407,21937,158843,84873
1408,21956,158908,84880
1409,21975,158971,84903
1410,21994,159060,84880
1411,22014,159195,84902
1412,22033,159287,84911
1413,22052,159360,84944
1414,22071,159410,84980
1415,22090,159315,84941
1416,22109,159066,84864
1417,22128,158712,84761
1418,22148,158359,84654
1419,22167,158021,84587
1420,22186,157768,84549
1421,22205,157581,84562
1422,22224,157494,84553
1423,22243,157491,84546
1424,22262,157532,84546
1425,22282,157614,84534
1426,22301,157659,84550
1427,22320,157715,84582
1428,22339,157821,84653
1429,22358,157957,84671
1430,22377,158108,84692
1431,22396,158236,84698
1432,22416,158338,84703
1433,22435,158369,84699
1434,22454,158351,84705
1435,22473,158335,84744
1436,22492,158313,84732
1437,22511,158338,84740
1438,22530,158408,84741
1439,22550,158453,84728
1440,22569,158514,84741
1441,22588,158522,84756
1442,22607,158570,84812
1443,22626,158643,84806
1444,22645,158726,84824
1445,22664,158816,84824
1446,22684,158906,84807
1447,22703,158951,84850
1448,22722,158986,84874
1449,22741,159026,84905
1450,22760,159076,84918
1451,22779,159191,84918
1452,22798,159288,84928
1453,22818,159374,84931
1454,22837,159412,84925
1455,22856,159310,84888
1456,22875,159039,84854
1457,22894,158654,84757
1458,22913,158290,84650
1459,22932,157985,84569
1460,22952,157770,84504
1461,22971,157580,84496
1462,22990,157503,84509
1463,23009,157455,84519
1464,23028,157434,84526
1465,23047,157491,84527
1466,23066,157550,84520
1467,23086,157643,84519
1468,23105,157736,84565
1469,23124,157884,84621
1470,23143,157983,84656
1471,23162,158096,84670
1472,23181,158142,84665
1473,23200,158227,84669
1474,23220,158241,84646
1475,23239,158244,84664
1476,23258,158237,84675
1477,23277,158216,84703
1478,23296,158270,84721
1479,23315,158341,84712
1480,23334,158440,84688
1481,23354,158484,84703
1482,23373,158543,84727
1483,23392,158600,84776
1484,23411,158646,84798
1485,23430,158695,84809
1486,23449,158754,84796
1487,23468,158871,84815
1488,23488,158930,84806
1489,23507,158991,84837
1490,23526,159054,84888
1491,23545,159110,84888
1492,23564,159193,84922
1493,23583,159278,84895
1494,23603,159258,84855
1495,23622,159041,84785
1496,23641,158688,84704
1497,23660,158289,84667
1498,23679,157925,84581
1499,23698,157669,84549
1500,23717,157509,84489
1501,23737,157479,84462
1502,23756,157449,84464
1503,23775,157441,84465
1504,23794,157436,84513
1505,23813,157439,84529
1506,23832,157517,84539
1507,23851,157632,84542
1508,23871,157791,84561
1509,23890,157917,84586
1510,23909,158044,84612
1511,23928,158087,84662
1512,23947,158095,84654
1513,23966,158119,84657
1514,23985,158125,84632
1515,24005,158172,84621
1516,24024,158184,84619
1517,24043,158216,84650
1518,24062,158215,84683
1519,24081,158252,84684
1520,24100,158313,84706
1521,24119,158388,84710
1522,24139,158504,84695
1523,24158,158545,84708
1524,24177,158612,84734
1525,24196,158635,84780
1526,24215,158688,84782
1527,24234,158762,84819
1528,24253,158856,84797
1529,24273,158975,84810
1530,24292,159027,84825
1531,24311,159092,84837
1532,24330,159042,84856
1533,24349,158852,84782
1534,24368,158537,84692
1535,24387,158211,84611
1536,24407,157911,84502
1537,24426,157619,84476
1538,24445,157417,84439
1539,24464,157280,84465
1540,24483,157214,84449
1541,24502,157248,84441
1542,24521,157276,84443
1543,24541,157347,84448
1544,24560,157386,84473
1545,24579,157463,84507
1546,24598,157579,84556
1547,24617,157725,84585
1548,24636,157865,84615
1549,24655,157995,84619
1550,24675,158063,84620
1551,24694,158098,84620
1552,24713,158074,84648
1553,24732,158078,84669
1554,24751,158082,84655
1555,24770,158118,84655
1556,24789,158190,84657
1557,24809,158268,84662
1558,24828,158317,84691
1559,24847,158360,84724
1560,24866,158420,84751
1561,24885,158481,84768
1562,24904,158589,84752
1563,24923,158692,84768
1564,24943,158770,84769
1565,24962,158850,84794
1566,24981,158874,84822
1567,25000,158935,84873
1568,25019,159004,84887
1569,25038,159091,84885
1570,25057,159223,84890
1571,25077,159318,84885
1572,25096,159324,84883
1573,25115,159160,84849
1574,25134,158823,84805
1575,25153,158432,84701
1576,25172,158059,84602
1577,25191,157789,84534
1578,25211,157585,84494
1579,25230,157445,84484
1580,25249,157384,84506
1581,25268,157379,84511
1582,25287,157380,84524
1583,25306,157423,84506
1584,25325,157520,84515
1585,25345,157620,84519
1586,25364,157755,84589
1587,25383,157859,84627
1588,25402,157963,84684
1589,25421,158040,84669
1590,25440,158108,84674
1591,25459,158180,84660
1592,25479,158174,84634
1593,25498,158175,84658
1594,25517,158150,84670
1595,25536,158167,84689
1596,25555,158182,84696
1597,25574,158221,84692
1598,25593,158314,84696
1599,25613,158392,84689
1600,25632,158418,84714
1601,25651,158458,84743
1602,25670,158526,84782
1603,25689,158576,84786
1604,25708,158651,84777
1605,25727,158749,84778
1606,25747,158803,84782
1607,25766,158869,84804
1608,25785,158925,84846
1609,25804,158985,84880
1610,25823,159045,84891
1611,25842,159143,84885
1612,25861,159196,84872
1613,25881,159086,84810
1614,25900,158796,84735
1615,25919,158408,84675
1616,25938,158017,84607
1617,25957,157704,84548
1618,25976,157482,84495
1619,25995,157387,84449
1620,26015,157331,84433
1621,26034,157308,84445
1622,26053,157315,84481
1623,26072,157320,84491
1624,26091,157361,84513
1625,26110,157450,84519
1626,26129,157579,84516
1627,26149,157703,84527
1628,26168,157833,84571
1629,26187,157886,84627
1630,26206,157929,84642
1631,26225,157961,84636
1632,26244,157942,84605
1633,26263,158006,84607
1634,26283,157998,84583
1635,26302,157994,84610
1636,26321,158019,84648
1637,26340,158044,84668
1638,26359,158087,84666
1639,26378,158165,84658
1640,26398,158252,84663
1641,26417,158331,84669
1642,26436,158364,84688
1643,26455,158411,84735
1644,26474,158485,84772
1645,26493,158537,84760
1646,26512,158592,84747
1647,26532,158704,84783
1648,26551,158764,84772
1649,26570,158847,84790
1650,26589,158907,84841
1651,26608,158973,84861
1652,26627,158995,84846
1653,26646,158894,84774
1654,26666,158659,84712
1655,26685,158283,84597
1656,26704,157894,84530
1657,26723,157557,84517
1658,26742,157295,84460
1659,26761,157146,84435
1660,26780,157072,84413
1661,26800,157086,84382
1662,26819,157066,84381
1663,26838,157076,84400
1664,26857,157108,84449
1665,26876,157137,84460
1666,26895,157242,84502
1667,26914,157413,84503
1668,26934,157573,84510
1669,26953,157677,84524
1670,26972,157734,84541
1671,26991,157749,84592
1672,27010,157748,84581
1673,27029,157756,84587
1674,27048,157779,84565
1675,27068,157836,84556
1676,27087,157865,84556
1677,27106,157898,84589
1678,27125,157943,84638
1679,27144,157971,84628
1680,27163,158040,84652
1681,27182,158121,84650
1682,27202,158229,84650
1683,27221,158277,84668
1684,27240,158363,84693
1685,27259,158420,84742
1686,27278,158474,84743
1687,27297,158545,84751
1688,27316,158641,84753
1689,27336,158744,84752
1690,27355,158806,84785
1691,27374,158884,84823
1692,27393,158973,84864
1693,27412,159011,84887
1694,27431,159112,84871
1695,27450,159077,84831
1696,27470,158847,84732
1697,27489,158480,84664
1698,27508,158061,84577
1699,27527,157713,84547
1700,27546,157426,84490
1701,27565,157286,84462
1702,27584,157206,84426
1703,27604,157208,84406
1704,27623,157193,84431
1705,27642,157214,84434
1706,27661,157246,84488
1707,27680,157278,84507
1708,27699,157413,84518
1709,27718,157550,84534
1710,27738,157737,84561
1711,27757,157839,84588
1712,27776,157904,84605
1713,27795,157919,84647
1714,27814,157914,84629
1715,27833,157931,84625
1716,27852,157951,84605
1717,27872,158016,84600
1718,27891,158018,84596
1719,27910,158030,84639
1720,27929,158074,84678
1721,27948,158096,84677
1722,27967,158204,84695
1723,27986,158283,84679
1724,28006,158380,84696
1725,28025,158450,84718
1726,28044,158499,84753
1727,28063,158564,84781
1728,28082,158602,84793
1729,28101,158697,84791
1730,28120,158801,84791
1731,28140,158864,84787
1732,28159,158962,84847
1733,28178,159027,84864
1734,28197,159117,84922
1735,28216,159131,84904
1736,28235,159029,84842
1737,28254,158801,84750
1738,28274,158451,84652
1739,28293,158068,84595
1740,28312,157734,84549
1741,28331,157517,84545
1742,28350,157387,84496
1743,28369,157381,84495
1744,28388,157385,84470
1745,28408,157432,84470
1746,28427,157463,84497
1747,28446,157522,84539
1748,28465,157570,84586
1749,28484,157702,84587
1750,28503,157860,84622
1751,28522,158030,84627
1752,28542,158105,84638
1753,28561,158147,84655
1754,28580,158128,84675
1755,28599,158141,84692
1756,28618,158098,84683
1757,28637,158108,84652
1758,28656,158179,84659
1759,28676,158213,84654
1760,28695,158258,84665
1761,28714,158282,84694
1762,28733,158335,84726
1763,28752,158371,84751
1764,28771,158456,84729
1765,28790,158550,84728
1766,28810,158628,84736
1767,28829,158673,84759
1768,28848,158721,84795
1769,28867,158754,84847
1770,28886,158822,84834
1771,28905,158919,84837
1772,28924,159028,84854
1773,28944,159110,84843
1774,28963,159051,84818
1775,28982,158802,84777
1776,29001,158469,84705
1777,29020,158087,84643
1778,29039,157771,84558
1779,29058,157535,84485
1780,29078,157396,84447
1781,29097,157311,84446
1782,29116,157247,84462
1783,29135,157248,84475
1784,29154,157279,84487
1785,29173,157325,84489
1786,29192,157410,84499
1787,29212,157541,84500
1788,29231,157686,84564
1789,29250,157804,84600
1790,29269,157880,84620
1791,29288,157941,84639
1792,29307,157989,84619
1793,29326,158022,84603
1794,29346,158027,84592
1795,29365,158022,84614
1796,29384,158022,84653
1797,29403,158030,84658
1798,29422,158072,84661
1799,29441,158152,84644
1800,29460,158258,84655
1801,29480,158276,84672
1802,29499,158362,84687
1803,29518,158389,84735
1804,29537,158436,84764
1805,29556,158488,84763
1806,29575,158561,84753
1807,29595,158663,84755
1808,29614,158732,84750
1809,29633,158806,84786
1810,29652,158880,84826
1811,29671,158913,84841
1812,29690,158838,84809
1813,29709,158629,84718
1814,29729,158329,84617
1815,29748,157936,84517
1816,29767,157612,84469
1817,29786,157332,84445
1818,29805,157153,84434
1819,29824,157078,84411
1820,29843,157035,84395
1821,29863,157089,84384
1822,29882,157088,84391
1823,29901,157142,84422
1824,29920,157188,84467
1825,29939,157279,84487
1826,29958,157408,84512
1827,29977,157558,84516
1828,29997,157731,84518
