sample_index,timestamp_ms,ir,red
0,0,144836,77322
1,1,144952,77332
2,1,145028,77326
3,1,145102,77358
4,2,145167,77392
5,2,145255,77431
6,2,145321,77444
7,3,145431,77440
8,3,145553,77462
9,3,145649,77444
10,3,145719,77485
11,3,145767,77497
12,4,145630,77487
13,4,145320,77376
14,4,144904,77265
15,4,144426,77135
16,4,143943,77025
17,5,143569,76955
18,5,143304,76935
19,5,143162,76954
20,5,143119,76935
21,6,143125,76922
22,6,143202,76918
23,6,143318,76937
24,6,143432,76972
25,7,143585,77036
26,7,143744,77095
27,7,143917,77120
28,7,144059,77141
29,7,144167,77134
30,7,144241,77126
31,7,144245,77132
32,8,144217,77144
33,8,144207,77182
34,9,144195,77163
35,9,144241,77177
36,9,144319,77184
37,9,144398,77179
38,9,144445,77202
39,9,144521,77240
40,9,144606,77290
41,9,144678,77306
42,9,144770,77288
43,10,144866,77314
44,10,144961,77308
45,10,145003,77336
46,10,145045,77360
47,10,145114,77411
48,10,145171,77405
49,10,145272,77413
50,10,145385,77404
51,10,145451,77403
52,10,145428,77394
53,11,145186,77349
54,11,144766,77261
55,11,144205,77135
56,11,143715,77017
57,11,143289,76897
58,11,142935,76844
59,11,142752,76811
60,11,142655,76833
61,11,142672,76875
62,11,142717,76867
63,11,142802,76886
64,12,142932,76888
65,12,143085,76916
66,12,143279,76986
67,12,143495,77044
68,12,143669,77126
69,12,143806,77124
70,12,143895,77137
71,13,143958,77125
72,13,143981,77108
73,13,143990,77110
74,13,143980,77137
75,13,144005,77181
76,13,144022,77199
77,13,144139,77212
78,13,144259,77226
79,13,144418,77242
80,13,144526,77274
81,13,144598,77298
82,14,144686,77368
83,14,144727,77365
84,14,144854,77368
85,14,145000,77367
86,14,145101,77386
87,14,145234,77441
88,14,145367,77489
89,14,145483,77536
90,14,145594,77549
91,14,145721,77578
92,14,145806,77562
93,14,145713,77493
94,15,145395,77412
95,15,144905,77325
96,15,144382,77223
97,15,143867,77124
98,15,143526,77030
99,15,143303,76974
100,15,143182,76929
101,15,143116,76954
102,15,143075,76971
103,15,143089,76981
104,15,143126,76996
105,15,143238,77009
106,15,143458,77043
107,15,143657,77053
108,16,143806,77104
109,16,143904,77148
110,16,143944,77170
111,16,143951,77144
112,16,143951,77140
113,16,143937,77143
114,16,143956,77106
115,16,143962,77124
116,16,143983,77162
117,16,144010,77182
118,16,144017,77174
119,17,144076,77169
120,17,144140,77185
121,17,144220,77163
122,17,144277,77189
123,17,144293,77225
124,17,144332,77269
125,17,144348,77256
126,17,144422,77252
127,17,144506,77249
128,17,144597,77290
129,17,144648,77307
130,17,144737,77338
131,18,144778,77362
132,18,144717,77337
133,18,144508,77244
134,18,144115,77133
135,18,143591,76996
136,18,143055,76893
137,18,142595,76818
138,18,142270,76788
139,18,142084,76778
140,18,142021,76738
141,18,142055,76740
142,18,142103,76732
143,18,142167,76771
144,18,142233,76831
145,19,142382,76882
146,19,142543,76916
147,19,142738,76923
148,19,142895,76964
149,19,142998,76967
150,19,143032,76970
151,19,143007,77000
152,19,143000,77026
153,19,142951,77013
154,19,142989,77013
155,19,143020,77003
156,19,143088,76984
157,19,143134,77019
158,19,143178,77065
159,19,143259,77095
160,20,143317,77127
161,20,143447,77134
162,20,143554,77139
163,20,143637,77142
164,20,143738,77175
165,20,143792,77190
166,20,143863,77252
167,20,143910,77245
168,20,144024,77268
169,20,144124,77269
170,20,144232,77267
171,20,144318,77318
172,20,144365,77312
173,20,144304,77318
174,20,144030,77225
175,21,143619,77117
176,21,143074,76972
177,21,142584,76846
178,21,142121,76760
179,21,141789,76737
180,21,141622,76747
181,21,141525,76725
182,21,141539,76719
183,21,141615,76718
184,21,141700,76731
185,21,141787,76763
186,21,141916,76809
187,21,142081,76880
188,21,142245,76916
189,21,142427,76949
190,21,142560,76929
191,22,142635,76933
192,22,142657,76949
193,22,142655,76966
194,22,142643,76999
195,22,142617,76986
196,22,142635,76982
197,22,142692,76967
198,22,142758,76962
199,22,142813,76997
200,22,142858,77035
201,22,142928,77077
202,22,142989,77090
203,22,143111,77108
204,22,143214,77104
205,22,143326,77120
206,23,143406,77154
207,23,143465,77189
208,23,143535,77230
209,23,143599,77232
210,23,143696,77250
211,23,143825,77262
212,23,143923,77258
213,23,144006,77289
214,23,144042,77316
215,23,144051,77328
216,23,143851,77264
217,23,143488,77142
218,23,143005,77010
219,23,142459,76878
220,23,141965,76785
221,24,141575,76724
222,24,141358,76740
223,24,141235,76713
224,24,141218,76694
225,24,141321,76703
226,24,141373,76710
227,24,141471,76730
228,24,141549,76781
229,24,141715,76855
230,24,141876,76892
231,24,142084,76925
232,24,142262,76926
233,24,142374,76934
234,24,142406,76955
235,25,142415,76987
236,25,142372,76997
237,25,142374,76988
238,25,142410,76995
239,25,142448,76987
240,25,142506,76981
241,25,142584,77015
242,25,142615,77046
243,25,142681,77083
244,25,142738,77104
245,25,142860,77112
246,25,142952,77127
247,25,143061,77131
248,25,143149,77171
249,25,143245,77199
250,25,143299,77240
251,25,143399,77250
252,26,143493,77278
253,26,143637,77281
254,26,143759,77281
255,26,143846,77332
256,26,143934,77354
257,26,143986,77378
258,26,143910,77348
259,26,143657,77237
260,26,143258,77120
261,26,142736,76970
262,26,142249,76898
263,26,141827,76854
264,36,141535,76821
265,55,141421,76795
266,74,141404,76765
267,93,141444,76771
268,113,141506,76782
269,132,141604,76812
270,151,141723,76866
271,170,141854,76923
272,189,142063,76966
273,208,142261,76988
274,227,142436,77014
275,247,142536,77025
276,266,142586,77054
277,285,142613,77073
278,304,142601,77083
279,323,142610,77079
280,342,142655,77081
281,361,142739,77070
282,381,142780,77067
283,400,142837,77119
284,419,142864,77134
285,438,142941,77157
286,457,143004,77179
287,476,143085,77173
288,495,143221,77195
289,515,143296,77180
290,534,143366,77211
291,553,143460,77251
292,572,143499,77299
293,591,143601,77317
294,610,143701,77326
295,629,143815,77323
296,649,143924,77331
297,668,144032,77374
298,687,144074,77384
299,706,143996,77369
300,725,143747,77290
301,744,143367,77169
302,763,142942,77043
303,783,142499,76941
304,802,142147,76905
305,821,141892,76876
306,840,141763,76871
307,859,141709,76867
308,878,141732,76846
309,897,141814,76846
310,917,141882,76857
311,936,141987,76914
312,955,142123,76966
313,974,142309,77023
314,993,142497,77043
315,1012,142639,77061
316,1032,142802,77078
317,1051,142830,77071
318,1070,142857,77097
319,1089,142858,77128
320,1108,142868,77145
321,1127,142897,77129
322,1146,142957,77130
323,1166,143042,77135
324,1185,143122,77143
325,1204,143188,77162
326,1223,143234,77219
327,1242,143310,77254
328,1261,143394,77269
329,1280,143493,77257
330,1300,143597,77263
331,1319,143679,77278
332,1338,143759,77298
333,1357,143838,77353
334,1376,143887,77361
335,1395,144002,77412
336,1414,144097,77402
337,1434,144234,77400
338,1453,144299,77411
339,1472,144252,77404
340,1491,144018,77350
341,1510,143649,77250
342,1529,143193,77151
343,1548,142773,77029
344,1568,142451,76942
345,1587,142166,76892
346,1606,141996,76864
347,1625,141870,76882
348,1644,141843,76878
349,1663,141874,76879
350,1682,141923,76874
351,1702,142043,76887
352,1721,142153,76916
353,1740,142338,76955
354,1759,142481,77014
355,1778,142610,77067
356,1797,142738,77083
357,1816,142843,77072
358,1836,142915,77074
359,1855,142925,77070
360,1874,142945,77073
361,1893,142917,77129
362,1912,142933,77135
363,1931,142978,77137
364,1950,143030,77126
365,1970,143111,77108
366,1989,143159,77123
367,2008,143232,77157
368,2027,143274,77207
369,2046,143338,77224
370,2065,143439,77244
371,2084,143525,77240
372,2104,143653,77259
373,2123,143742,77265
374,2142,143844,77294
375,2161,143878,77336
376,2180,143963,77358
377,2199,144099,77372
378,2218,144193,77406
379,2238,144315,77369
380,2257,144280,77357
381,2276,144064,77303
382,2295,143688,77245
383,2314,143227,77126
384,2333,142822,77050
385,2352,142488,76948
386,2372,142238,76891
387,2391,142093,76878
388,2410,142042,76873
389,2429,142007,76920
390,2448,142046,76911
391,2467,142100,76939
392,2486,142197,76931
393,2506,142334,76966
394,2525,142509,76991
395,2544,142687,77043
396,2563,142817,77104
397,2582,142919,77127
398,2601,143026,77140
399,2620,143083,77139
400,2640,143140,77149
401,2659,143158,77126
402,2678,143170,77139
403,2697,143185,77189
404,2716,143224,77208
405,2735,143282,77199
406,2754,143362,77209
407,2774,143460,77214
408,2793,143521,77216
409,2812,143590,77262
410,2831,143677,77305
411,2850,143731,77322
412,2869,143801,77339
413,2888,143913,77334
414,2908,143997,77335
415,2927,144080,77344
416,2946,144170,77376
417,2965,144240,77444
418,2984,144314,77452
419,3003,144422,77476
420,3022,144505,77462
421,3042,144569,77467
422,3061,144417,77389
423,3080,144110,77328
424,3099,143666,77246
425,3118,143207,77148
426,3137,142852,77057
427,3156,142580,77009
428,3176,142438,76962
429,3195,142369,76947
430,3214,142380,76970
431,3233,142391,77008
432,3252,142450,77006
433,3271,142528,77040
434,3290,142642,77050
435,3310,142876,77082
436,3329,143039,77114
437,3348,143186,77168
438,3367,143246,77236
439,3386,143320,77219
440,3405,143400,77236
441,3424,143400,77232
442,3444,143469,77233
443,3463,143454,77225
444,3482,143500,77235
445,3501,143514,77280
446,3520,143569,77289
447,3539,143630,77317
448,3558,143734,77292
449,3578,143842,77311
450,3597,143894,77321
451,3616,143998,77355
452,3635,144034,77405
453,3654,144110,77404
454,3673,144196,77436
455,3692,144297,77431
456,3712,144415,77451
457,3731,144486,77469
458,3750,144575,77480
459,3769,144620,77532
460,3788,144730,77568
461,3807,144799,77580
462,3826,144811,77543
463,3846,144663,77458
464,3865,144331,77353
465,3884,143894,77270
466,3903,143462,77214
467,3922,143094,77134
468,3941,142855,77111
469,3960,142739,77050
470,3980,142714,77032
471,3999,142725,77055
472,4018,142748,77062
473,4037,142767,77088
474,4056,142815,77125
475,4075,142969,77163
476,4094,143131,77181
477,4114,143330,77201
478,4133,143464,77225
479,4152,143538,77262
480,4171,143560,77285
481,4190,143547,77286
482,4209,143581,77284
483,4228,143575,77282
484,4248,143614,77278
485,4267,143662,77270
486,4286,143674,77302
487,4305,143717,77342
488,4324,143748,77363
489,4343,143833,77374
490,4362,143913,77378
491,4382,144050,77391
492,4401,144116,77401
493,4420,144191,77416
494,4439,144240,77466
495,4458,144316,77489
496,4477,144408,77498
497,4496,144514,77518
498,4516,144641,77516
499,4535,144721,77542
500,4554,144814,77539
501,4573,144781,77578
502,4592,144606,77511
503,4611,144306,77429
504,4630,143928,77313
505,4650,143495,77202
506,4669,143168,77144
507,4688,142914,77120
508,4707,142758,77140
509,4726,142698,77103
510,4745,142701,77090
511,4764,142752,77095
512,4784,142810,77084
513,4803,142878,77115
514,4822,142983,77165
515,4841,143126,77232
516,4860,143261,77271
517,4879,143419,77271
518,4898,143558,77279
519,4918,143621,77281
520,4937,143635,77296
521,4956,143635,77303
522,4975,143640,77329
523,4994,143666,77344
524,5013,143683,77328
525,5032,143774,77324
526,5052,143828,77332
527,5071,143888,77371
528,5090,143942,77415
529,5109,143995,77420
530,5128,144078,77440
531,5147,144169,77450
532,5167,144306,77465
533,5186,144376,77476
534,5205,144443,77495
535,5224,144489,77549
536,5243,144561,77573
537,5262,144662,77590
538,5281,144742,77580
539,5301,144870,77598
540,5320,144940,77607
541,5339,145006,77616
542,5358,144961,77629
543,5377,144721,77541
544,5396,144386,77455
545,5415,143932,77328
546,5435,143545,77223
547,5454,143148,77150
548,5473,142906,77109
549,5492,142752,77123
550,5511,142643,77104
551,5530,142632,77099
552,5549,142652,77094
553,5569,142720,77070
554,5588,142769,77101
555,5607,142869,77148
556,5626,143037,77235
557,5645,143175,77266
558,5664,143342,77276
559,5683,143513,77291
560,5703,143578,77289
561,5722,143659,77317
562,5741,143652,77333
563,5760,143665,77378
564,5779,143645,77368
565,5798,143717,77354
566,5817,143782,77348
567,5837,143844,77355
568,5856,143901,77386
569,5875,143947,77420
570,5894,144008,77470
571,5913,144094,77476
572,5932,144178,77500
573,5951,144331,77497
574,5971,144415,77499
575,5990,144500,77521
576,6009,144591,77570
577,6028,144646,77600
578,6047,144723,77613
579,6066,144827,77631
580,6085,144933,77644
581,6105,145042,77621
582,6124,145133,77669
583,6143,145188,77713
584,6162,145184,77722
585,6181,145057,77674
586,6200,144758,77575
587,6219,144394,77439
588,6239,143894,77320
589,6258,143465,77244
590,6277,143082,77193
591,6296,142847,77165
592,6315,142710,77139
593,6334,142658,77114
594,6354,142696,77099
595,6373,142704,77094
596,6392,142744,77117
597,6411,142825,77176
598,6430,142971,77231
599,6449,143135,77257
600,6468,143299,77281
601,6488,143482,77286
602,6507,143583,77309
603,6526,143639,77333
604,6545,143655,77364
605,6564,143658,77365
606,6583,143676,77369
607,6602,143717,77350
608,6622,143765,77349
609,6641,143812,77381
610,6660,143858,77394
611,6679,143906,77433
612,6698,143948,77456
613,6717,144037,77471
614,6736,144147,77473
615,6756,144288,77471
616,6775,144344,77508
617,6794,144410,77520
618,6813,144481,77605
619,6832,144545,77602
620,6851,144648,77613
621,6870,144743,77603
622,6890,144860,77631
623,6909,144944,77658
624,6928,145060,77693
625,6947,145145,77746
626,6966,145152,77731
627,6985,145070,77680
628,7004,144802,77574
629,7024,144415,77459
630,7043,143959,77383
631,7062,143515,77290
632,7081,143149,77250
633,7100,142918,77199
634,7119,142809,77154
635,7138,142772,77160
636,7158,142795,77134
637,7177,142812,77159
638,7196,142880,77189
639,7215,142969,77263
640,7234,143104,77281
641,7253,143298,77310
642,7272,143485,77338
643,7292,143607,77338
644,7311,143700,77366
645,7330,143719,77399
646,7349,143720,77406
647,7368,143751,77402
648,7387,143764,77391
649,7407,143802,77388
650,7426,143810,77371
651,7445,143830,77393
652,7464,143858,77434
653,7483,143899,77451
654,7502,143978,77462
655,7521,144029,77453
656,7541,144138,77445
657,7560,144178,77461
658,7579,144225,77489
659,7598,144286,77537
660,7617,144336,77540
661,7636,144416,77560
662,7655,144517,77560
663,7675,144629,77565
664,7694,144683,77578
665,7713,144790,77610
666,7732,144814,77658
667,7751,144749,77614
668,7770,144542,77545
669,7789,144154,77430
670,7809,143714,77302
671,7828,143238,77208
672,7847,142819,77146
673,7866,142535,77117
674,7885,142348,77072
675,7904,142310,77065
676,7923,142357,77065
677,7943,142403,77048
678,7962,142467,77094
679,7981,142551,77128
680,8000,142674,77174
681,8019,142840,77207
682,8038,143034,77231
683,8057,143237,77249
684,8077,143357,77267
685,8096,143415,77280
686,8115,143426,77318
687,8134,143418,77337
688,8153,143412,77330
689,8172,143461,77323
690,8191,143518,77311
691,8211,143536,77299
692,8230,143583,77329
693,8249,143629,77388
694,8268,143689,77411
695,8287,143751,77425
696,8306,143840,77412
697,8326,143963,77426
698,8345,143997,77426
699,8364,144079,77451
700,8383,144143,77510
701,8402,144213,77537
702,8421,144305,77545
703,8440,144414,77529
704,8460,144536,77560
705,8479,144638,77561
706,8498,144657,77576
707,8517,144563,77577
708,8536,144308,77478
709,8555,143917,77372
710,8574,143397,77239
711,8594,142951,77138
712,8613,142546,77040
713,8632,142273,77012
714,8651,142115,77019
715,8670,142025,77010
716,8689,142049,76994
717,8708,142107,77006
718,8728,142192,76995
719,8747,142288,77037
720,8766,142416,77102
721,8785,142599,77169
722,8804,142764,77189
723,8823,142939,77191
724,8842,143089,77224
725,8862,143166,77230
726,8881,143195,77243
727,8900,143197,77261
728,8919,143187,77277
729,8938,143176,77293
730,8957,143195,77261
731,8976,143263,77274
732,8996,143315,77249
733,9015,143386,77294
734,9034,143432,77346
735,9053,143513,77368
736,9072,143553,77385
737,9091,143676,77390
738,9111,143799,77397
739,9130,143889,77387
740,9149,143967,77416
741,9168,144031,77484
742,9187,144092,77481
743,9206,144178,77506
744,9225,144291,77518
745,9245,144420,77525
746,9264,144513,77543
747,9283,144594,77564
748,9302,144556,77586
749,9321,144316,77521
750,9340,143970,77407
751,9359,143480,77264
752,9379,142960,77133
753,9398,142484,77042
754,9417,142132,76990
755,9436,141947,76985
756,9455,141839,76967
757,9474,141857,76972
758,9493,141916,76973
759,9513,142018,76972
760,9532,142096,76999
761,9551,142235,77050
762,9570,142382,77124
763,9589,142557,77166
764,9608,142772,77189
765,9627,142956,77204
766,9647,143072,77211
767,9666,143133,77234
768,9685,143150,77240
769,9704,143149,77287
770,9723,143168,77277
771,9742,143212,77270
772,9761,143301,77281
773,9781,143354,77265
774,9800,143410,77295
775,9819,143445,77348
776,9838,143511,77373
777,9857,143602,77397
778,9876,143684,77379
779,9895,143807,77404
780,9915,143896,77412
781,9934,143974,77438
782,9953,144027,77488
783,9972,144100,77497
784,9991,144172,77535
785,10010,144264,77524
786,10029,144369,77528
787,10049,144469,77547
788,10068,144550,77569
789,10087,144619,77614
790,10106,144596,77612
791,10125,144419,77551
792,10144,144025,77394
793,10164,143538,77268
794,10183,142995,77145
795,10202,142523,77059
796,10221,142177,77027
797,10240,141975,77011
798,10259,141919,76995
799,10278,141931,76980
800,10298,142011,76981
801,10317,142085,76998
802,10336,142192,77027
803,10355,142310,77107
804,10374,142504,77143
805,10393,142722,77194
806,10412,142921,77219
807,10432,143080,77212
808,10451,143150,77233
809,10470,143170,77245
810,10489,143181,77294
811,10508,143156,77281
812,10527,143194,77290
813,10546,143227,77272
814,10566,143291,77273
815,10585,143329,77282
816,10604,143373,77319
817,10623,143422,77350
818,10642,143465,77368
819,10661,143548,77360
820,10680,143636,77374
821,10700,143715,77356
822,10719,143785,77400
823,10738,143831,77407
824,10757,143885,77454
825,10776,143956,77464
826,10795,144043,77496
827,10814,144167,77474
828,10834,144258,77492
829,10853,144243,77472
830,10872,144008,77414
831,10891,143603,77321
832,10910,143084,77211
833,10929,142615,77084
834,10948,142243,76987
835,10968,141968,76934
836,10987,141828,76910
837,11006,141758,76942
838,11025,141764,76953
839,11044,141806,76970
840,11063,141914,76952
841,11082,142057,76983
842,11102,142211,77017
843,11121,142381,77066
844,11140,142561,77127
845,11159,142664,77164
846,11178,142750,77171
847,11197,142824,77175
848,11217,142875,77160
849,11236,142845,77141
850,11255,142834,77162
851,11274,142853,77190
852,11293,142864,77219
853,11312,142909,77214
854,11331,142970,77196
855,11351,143087,77206
856,11370,143150,77238
857,11389,143246,77252
858,11408,143319,77312
859,11427,143402,77321
860,11446,143485,77353
861,11465,143586,77348
862,11485,143697,77369
863,11504,143783,77381
864,11523,143893,77395
865,11542,143964,77453
866,11561,144039,77459
867,11580,143969,77412
868,11599,143699,77306
869,11619,143323,77185
870,11638,142798,77067
871,11657,142334,76973
872,11676,141944,76941
873,11695,141692,76894
874,11714,141596,76871
875,11733,141587,76848
876,11753,141642,76870
877,11772,141709,76882
878,11791,141790,76912
879,11810,141900,76986
880,11829,142028,77023
881,11848,142267,77051
882,11867,142453,77070
883,11887,142634,77094
884,11906,142751,77131
885,11925,142822,77162
886,11944,142852,77188
887,11963,142851,77184
888,11982,142880,77191
889,12001,142928,77172
890,12021,142993,77159
891,12040,143030,77197
892,12059,143083,77221
893,12078,143136,77271
894,12097,143202,77283
895,12116,143319,77284
896,12135,143430,77282
897,12155,143541,77294
898,12174,143615,77327
899,12193,143649,77366
900,12212,143720,77393
901,12231,143782,77395
902,12250,143881,77405
903,12269,144013,77413
904,12289,144097,77418
905,12308,144191,77456
906,12327,144208,77482
907,12346,144105,77443
908,12365,143827,77372
909,12384,143348,77208
910,12403,142857,77071
911,12423,142321,76938
912,12442,141933,76873
913,12461,141652,76870
914,12480,141511,76853
915,12499,141452,76843
916,12518,141494,76839
917,12537,141576,76832
918,12557,141638,76844
919,12576,141747,76892
920,12595,141891,76957
921,12614,142098,77011
922,12633,142297,77068
923,12652,142438,77084
924,12672,142616,77086
925,12691,142699,77108
926,12710,142721,77109
927,12729,142714,77148
928,12748,142718,77149
929,12767,142749,77166
930,12786,142796,77139
931,12806,142875,77163
932,12825,142947,77177
933,12844,143016,77184
934,12863,143088,77266
935,12882,143143,77272
936,12901,143251,77289
937,12920,143371,77285
938,12940,143475,77292
939,12959,143545,77319
940,12978,143609,77341
941,12997,143689,77410
942,13016,143739,77414
943,13035,143859,77426
944,13054,143953,77429
945,13074,144096,77437
946,13093,144183,77463
947,13112,144167,77451
948,13131,144033,77434
949,13150,143673,77322
950,13169,143198,77193
951,13188,142685,77058
952,13208,142263,76950
953,13227,141897,76896
954,13246,141665,76862
955,13265,141583,76876
956,13284,141533,76868
957,13303,141556,76884
958,13322,141610,76877
959,13342,141735,76891
960,13361,141857,76941
961,13380,142040,76975
962,13399,142224,77083
963,13418,142392,77095
964,13437,142532,77128
965,13456,142617,77111
966,13476,142707,77122
967,13495,142717,77117
968,13514,142736,77128
969,13533,142726,77179
970,13552,142702,77166
971,13571,142776,77176
972,13590,142810,77161
973,13610,142882,77162
974,13629,142952,77165
975,13648,143024,77202
976,13667,143076,77260
977,13686,143136,77261
978,13705,143223,77288
979,13724,143321,77285
980,13744,143417,77293
981,13763,143484,77311
982,13782,143571,77344
983,13801,143628,77396
984,13820,143688,77405
985,13839,143805,77422
986,13858,143873,77405
987,13878,143797,77338
988,13897,143499,77249
989,13916,143041,77145
990,13935,142537,77055
991,13954,142045,76958
992,13973,141713,76908
993,13992,141515,76844
994,14012,141479,76824
995,14031,141430,76817
996,14050,141470,76831
997,14069,141484,76881
998,14088,141538,76901
999,14107,141699,76938
1000,14126,141891,76955
1001,14146,142100,77000
1002,14165,142252,77044
1003,14184,142391,77068
1004,14203,142449,77114
1005,14222,142466,77108
1006,14241,142494,77108
1007,14260,142520,77086
1008,14280,142574,77102
1009,14299,142577,77089
1010,14318,142623,77139
1011,14337,142654,77170
1012,14356,142709,77179
1013,14375,142791,77185
1014,14394,142891,77188
1015,14414,143008,77203
1016,14433,143075,77217
1017,14452,143147,77235
1018,14471,143200,77293
1019,14490,143265,77299
1020,14509,143347,77306
1021,14528,143459,77324
1022,14548,143579,77316
1023,14567,143672,77348
1024,14586,143732,77378
1025,14605,143797,77439
1026,14624,143704,77370
1027,14643,143501,77287
1028,14662,143111,77162
1029,14682,142613,77023
1030,14701,142100,76929
1031,14720,141681,76852
1032,14739,141409,76851
1033,14758,141259,76817
1034,14777,141220,76784
1035,14796,141258,76777
1036,14816,141308,76775
1037,14835,141385,76816
1038,14854,141449,76871
1039,14873,141621,76933
1040,14892,141784,76947
1041,14911,141985,76976
1042,14930,142180,77025
1043,14950,142320,77027
1044,14969,142385,77069
1045,14988,142389,77052
1046,15007,142415,77099
1047,15026,142418,77078
1048,15045,142461,77098
1049,15064,142526,77093
1050,15084,142567,77091
1051,15103,142625,77118
1052,15122,142656,77138
1053,15141,142691,77172
1054,15160,142780,77197
1055,15179,142878,77187
1056,15198,143015,77202
1057,15218,143065,77205
1058,15237,143158,77238
1059,15256,143246,77291
1060,15275,143299,77318
1061,15294,143379,77324
1062,15313,143479,77322
1063,15332,143605,77344
1064,15352,143684,77349
1065,15371,143779,77381
1066,15390,143854,77444
1067,15409,143919,77458
1068,15428,143836,77397
1069,15447,143594,77315
1070,15467,143222,77186
1071,15486,142676,77052
1072,15505,142139,76937
1073,15524,141708,76895
1074,15543,141421,76830
1075,15562,141267,76805
1076,15581,141231,76782
1077,15601,141265,76778
1078,15620,141305,76775
1079,15639,141341,76812
1080,15658,141440,76886
1081,15677,141580,76905
1082,15696,141786,76957
1083,15715,142031,76995
1084,15735,142231,77010
1085,15754,142331,77060
1086,15773,142392,77068
1087,15792,142425,77118
1088,15811,142431,77098
1089,15830,142476,77115
1090,15849,142521,77098
1091,15869,142562,77093
1092,15888,142596,77115
1093,15907,142658,77149
1094,15926,142742,77203
1095,15945,142784,77207
1096,15964,142894,77211
1097,15983,143026,77221
1098,16003,143094,77222
1099,16022,143185,77269
1100,16041,143252,77300
1101,16060,143324,77334
1102,16079,143395,77338
1103,16098,143485,77362
1104,16117,143615,77361
1105,16137,143691,77367
1106,16156,143774,77410
1107,16175,143866,77438
1108,16194,143934,77477
1109,16213,144015,77502
1110,16232,144115,77487
1111,16251,144106,77453
1112,16271,143874,77363
1113,16290,143475,77261
1114,16309,142902,77148
1115,16328,142371,77046
1116,16347,141945,76976
1117,16366,141667,76884
1118,16386,141539,76865
1119,16405,141499,76833
1120,16424,141489,76862
1121,16443,141529,76900
1122,16462,141596,76916
1123,16481,141726,76962
1124,16500,141897,76986
1125,16520,142126,77011
1126,16539,142306,77050
1127,16558,142455,77085
1128,16577,142531,77141
1129,16596,142555,77146
1130,16615,142603,77152
1131,16634,142639,77130
1132,16654,142667,77120
1133,16673,142690,77137
1134,16692,142688,77142
1135,16711,142734,77201
1136,16730,142767,77203
1137,16749,142834,77214
1138,16768,142917,77229
1139,16788,143021,77210
1140,16807,143113,77247
1141,16826,143182,77272
1142,16845,143250,77335
1143,16864,143312,77336
1144,16883,143397,77344
1145,16902,143515,77353
1146,16922,143587,77347
1147,16941,143664,77376
1148,16960,143735,77411
1149,16979,143801,77455
1150,16998,143870,77465
1151,17017,143964,77473
1152,17036,144088,77468
1153,17056,144065,77439
1154,17075,143871,77388
1155,17094,143444,77282
1156,17113,142909,77175
1157,17132,142349,77041
1158,17151,141894,76936
1159,17170,141627,76875
1160,17190,141483,76819
1161,17209,141427,76821
1162,17228,141396,76839
1163,17247,141420,76871
1164,17266,141492,76899
1165,17285,141611,76910
1166,17304,141821,76937
1167,17324,142029,76980
1168,17343,142206,77038
1169,17362,142346,77088
1170,17381,142455,77130
1171,17400,142542,77151
1172,17419,142554,77139
1173,17439,142621,77119
1174,17458,142642,77120
1175,17477,142639,77122
1176,17496,142646,77170
1177,17515,142680,77185
1178,17534,142760,77209
1179,17553,142833,77207
1180,17573,142942,77185
1181,17592,143011,77221
1182,17611,143082,77237
1183,17630,143152,77296
1184,17649,143214,77328
1185,17668,143327,77330
1186,17687,143408,77338
1187,17707,143512,77340
1188,17726,143579,77350
1189,17745,143642,77365
1190,17764,143730,77438
1191,17783,143797,77455
1192,17802,143936,77469
1193,17821,143999,77451
1194,17841,143938,77389
1195,17860,143603,77303
1196,17879,143142,77201
1197,17898,142599,77105
1198,17917,142075,76974
1199,17936,141712,76898
1200,17955,141492,76827
1201,17975,141392,76795
1202,17994,141396,76825
1203,18013,141388,76844
1204,18032,141457,76899
1205,18051,141508,76905
1206,18070,141672,76922
1207,18089,141886,76951
1208,18109,142088,76986
1209,18128,142297,77043
1210,18147,142425,77101
1211,18166,142507,77146
1212,18185,142553,77142
1213,18204,142606,77120
1214,18223,142666,77118
1215,18243,142679,77110
1216,18262,142680,77125
1217,18281,142697,77166
1218,18300,142741,77197
1219,18319,142795,77193
1220,18338,142885,77199
1221,18357,142997,77218
1222,18377,143061,77217
1223,18396,143145,77253
1224,18415,143212,77300
1225,18434,143293,77330
1226,18453,143368,77344
1227,18472,143486,77341
1228,18492,143635,77338
1229,18511,143686,77374
1230,18530,143769,77386
1231,18549,143824,77447
1232,18568,143903,77460
1233,18587,143982,77494
1234,18606,144096,77471
1235,18626,144202,77479
1236,18645,144221,77471
1237,18664,144066,77416
1238,18683,143659,77346
1239,18702,143094,77212
1240,18721,142547,77048
1241,18740,142024,76922
1242,18760,141686,76867
1243,18779,141432,76806
1244,18798,141343,76807
1245,18817,141310,76832
1246,18836,141332,76840
1247,18855,141411,76844
1248,18874,141527,76864
1249,18894,141691,76881
1250,18913,141872,76946
1251,18932,142054,77006
1252,18951,142225,77078
1253,18970,142360,77084
1254,18989,142485,77104
1255,19008,142552,77097
1256,19028,142614,77092
1257,19047,142614,77109
1258,19066,142624,77132
1259,19085,142610,77148
1260,19104,142621,77165
1261,19123,142692,77165
1262,19142,142774,77178
1263,19162,142859,77183
1264,19181,142921,77215
1265,19200,142973,77244
1266,19219,143065,77278
1267,19238,143125,77284
1268,19257,143246,77298
1269,19276,143370,77312
1270,19296,143464,77305
1271,19315,143534,77337
1272,19334,143587,77377
1273,19353,143664,77422
1274,19372,143734,77445
1275,19391,143824,77441
1276,19410,143963,77451
1277,19430,144065,77450
1278,19449,144147,77490
1279,19468,144121,77467
1280,19487,143908,77429
1281,19506,143501,77301
1282,19525,142969,77173
1283,19544,142476,77028
1284,19564,142003,76909
1285,19583,141693,76864
1286,19602,141509,76845
1287,19621,141410,76867
1288,19640,141412,76868
1289,19659,141483,76882
1290,19678,141597,76874
1291,19698,141701,76906
1292,19717,141881,76957
1293,19736,142060,77025
1294,19755,142226,77077
1295,19774,142392,77111
1296,19793,142530,77104
1297,19813,142641,77116
1298,19832,142658,77129
1299,19851,142678,77131
1300,19870,142671,77147
1301,19889,142665,77171
1302,19908,142703,77187
1303,19927,142738,77158
1304,19947,142822,77172
1305,19966,142869,77166
1306,19985,142912,77207
1307,20004,142983,77240
1308,20023,143046,77264
1309,20042,143164,77264
1310,20061,143238,77278
1311,20081,143352,77276
1312,20100,143419,77295
1313,20119,143467,77324
1314,20138,143516,77369
1315,20157,143577,77374
1316,20176,143697,77402
1317,20195,143811,77406
1318,20215,143939,77417
1319,20234,144029,77440
1320,20253,143984,77423
1321,20272,143776,77371
1322,20291,143389,77271
1323,20310,142877,77114
1324,20329,142359,76974
1325,20349,141929,76871
1326,20368,141600,76833
1327,20387,141407,76806
1328,20406,141327,76816
1329,20425,141323,76830
1330,20444,141383,76822
1331,20463,141492,76836
1332,20483,141604,76849
1333,20502,141760,76888
1334,20521,141913,76976
1335,20540,142099,77044
1336,20559,142279,77068
1337,20578,142405,77069
1338,20598,142515,77054
1339,20617,142512,77060
1340,20636,142537,77071
1341,20655,142509,77104
1342,20674,142508,77091
1343,20693,142535,77094
1344,20712,142604,77090
1345,20732,142669,77090
1346,20751,142717,77109
1347,20770,142770,77138
1348,20789,142823,77183
1349,20808,142877,77187
1350,20827,142961,77206
1351,20846,143048,77204
1352,20866,143151,77205
1353,20885,143202,77239
1354,20904,143254,77261
1355,20923,143337,77316
1356,20942,143432,77323
1357,20961,143548,77344
1358,20980,143647,77348
1359,21000,143726,77341
1360,21019,143643,77297
1361,21038,143361,77228
1362,21057,142887,77137
1363,21076,142316,76980
1364,21095,141833,76863
1365,21114,141447,76765
1366,21134,141191,76709
1367,21153,141075,76691
1368,21172,141036,76716
1369,21191,141039,76758
1370,21210,141072,76758
1371,21229,141173,76752
1372,21248,141317,76782
1373,21268,141518,76829
1374,21287,141734,76883
1375,21306,141905,76947
1376,21325,142067,77012
1377,21344,142190,77022
1378,21363,142244,77024
1379,21382,142346,77022
1380,21402,142367,77005
1381,21421,142357,77030
1382,21440,142353,77047
1383,21459,142368,77068
1384,21478,142394,77086
1385,21497,142461,77063
1386,21516,142563,77081
1387,21536,142655,77093
1388,21555,142745,77125
1389,21574,142820,77174
1390,21593,142899,77195
1391,21612,142990,77224
1392,21631,143080,77234
1393,21650,143214,77239
1394,21670,143309,77250
1395,21689,143423,77287
1396,21708,143488,77339
1397,21727,143571,77350
1398,21746,143662,77381
1399,21765,143708,77367
1400,21784,143672,77292
1401,21804,143348,77187
1402,21823,142848,77073
1403,21842,142289,76974
1404,21861,141777,76866
1405,21880,141367,76805
1406,21899,141177,76732
1407,21918,141109,76721
1408,21938,141094,76696
1409,21957,141099,76710
1410,21976,141134,76774
1411,21995,141182,76798
1412,22014,141312,76832
1413,22033,141526,76857
1414,22052,141764,76892
1415,22072,141938,76932
1416,22091,142108,76970
1417,22110,142194,77019
1418,22129,142230,77039
1419,22148,142236,77038
1420,22167,142253,77008
1421,22186,142291,76992
1422,22206,142295,76999
1423,22225,142309,77025
1424,22244,142334,77058
1425,22263,142368,77090
1426,22282,142440,77100
1427,22301,142509,77088
1428,22321,142627,77102
1429,22340,142694,77117
1430,22359,142782,77152
1431,22378,142831,77185
1432,22397,142910,77203
1433,22416,142999,77234
1434,22435,143086,77237
1435,22455,143215,77228
1436,22474,143307,77245
1437,22493,143393,77277
1438,22512,143471,77338
1439,22531,143470,77312
1440,22550,143300,77253
1441,22569,142912,77107
1442,22589,142396,76970
1443,22608,141862,76842
1444,22627,141414,76764
1445,22646,141094,76748
1446,22665,140902,76707
1447,22684,140889,76705
1448,22703,140882,76684
1449,22723,140971,76677
1450,22742,141022,76694
1451,22761,141120,76735
1452,22780,141253,76817
1453,22799,141450,76865
1454,22818,141670,76898
1455,22837,141843,76915
1456,22857,142007,76916
1457,22876,142046,76929
1458,22895,142025,76934
1459,22914,142030,76969
1460,22933,141990,76950
1461,22952,142011,76990
1462,22971,142053,76961
1463,22991,142135,76957
1464,23010,142191,76968
1465,23029,142230,76995
1466,23048,142282,77063
1467,23067,142356,77061
1468,23086,142456,77067
1469,23105,142551,77073
1470,23125,142653,77076
1471,23144,142689,77108
1472,23163,142759,77136
1473,23182,142858,77188
1474,23201,142926,77203
1475,23220,143042,77216
1476,23239,143157,77219
1477,23259,143190,77196
1478,23278,143043,77143
1479,23297,142686,77051
1480,23316,142186,76955
1481,23335,141654,76826
1482,23354,141228,76742
1483,23373,140922,76663
1484,23393,140788,76610
1485,23412,140716,76620
1486,23431,140719,76621
1487,23450,140731,76662
1488,23469,140807,76686
1489,23488,140912,76711
1490,23507,141091,76742
1491,23527,141318,76766
1492,23546,141514,76829
1493,23565,141690,76886
1494,23584,141818,76934
1495,23603,141876,76939
1496,23622,141939,76932
1497,23641,141987,76920
1498,23661,142019,76924
1499,23680,142048,76926
1500,23699,142031,76954
1501,23718,142064,76990
1502,23737,142104,77000
1503,23756,142176,76996
1504,23775,142312,77016
1505,23795,142390,77004
1506,23814,142475,77063
1507,23833,142573,77094
1508,23852,142626,77124
1509,23871,142696,77137
1510,23890,142790,77137
1511,23909,142911,77152
1512,23929,142998,77155
1513,23948,143091,77198
1514,23967,143160,77240
1515,23986,143219,77278
1516,24005,143315,77287
1517,24024,143324,77257
1518,24043,143174,77162
1519,24063,142752,77028
1520,24082,142259,76913
1521,24101,141686,76808
1522,24120,141227,76727
1523,24139,140912,76680
1524,24158,140785,76631
1525,24177,140762,76611
1526,24197,140765,76591
1527,24216,140838,76617
1528,24235,140879,76661
1529,24254,140953,76700
1530,24273,141064,76752
1531,24292,141275,76763
1532,24312,141531,76796
1533,24331,141699,76835
1534,24350,141847,76880
1535,24369,141937,76912
1536,24388,141955,76948
1537,24407,141980,76929
1538,24426,141971,76920
1539,24446,142017,76900
1540,24465,142007,76916
1541,24484,142047,76926
1542,24503,142062,76958
1543,24522,142090,76993
1544,24541,142159,77013
1545,24560,142248,77004
1546,24580,142371,77006
1547,24599,142451,77018
1548,24618,142545,77066
1549,24637,142594,77114
1550,24656,142688,77125
1551,24675,142779,77169
1552,24694,142876,77154
1553,24714,142991,77155
1554,24733,143079,77178
1555,24752,143189,77207
1556,24771,143236,77260
1557,24790,143317,77276
1558,24809,143389,77277
1559,24828,143330,77222
1560,24848,143041,77099
1561,24867,142579,76982
1562,24886,142031,76854
1563,24905,141501,76782
1564,24924,141133,76716
1565,24943,140939,76664
1566,24962,140869,76641
1567,24982,140874,76637
1568,25001,140907,76634
1569,25020,140954,76660
1570,25039,141029,76723
1571,25058,141165,76760
1572,25077,141369,76794
1573,25096,141580,76825
1574,25116,141813,76865
1575,25135,141942,76908
1576,25154,142028,76920
1577,25173,142063,76973
1578,25192,142067,76961
1579,25211,142083,76955
1580,25230,142092,76935
1581,25250,142132,76919
1582,25269,142185,76940
1583,25288,142195,76970
1584,25307,142245,77006
1585,25326,142284,77027
1586,25345,142392,77031
1587,25364,142482,77041
1588,25384,142569,77043
1589,25403,142689,77069
1590,25422,142756,77116
1591,25441,142819,77147
1592,25460,142874,77171
1593,25479,142958,77165
1594,25498,143078,77184
1595,25518,143177,77176
1596,25537,143258,77197
1597,25556,143324,77250
1598,25575,143416,77297
1599,25594,143467,77293
1600,25613,143429,77242
1601,25632,143179,77127
1602,25652,142754,77006
1603,25671,142201,76892
1604,25690,141676,76793
1605,25709,141273,76736
1606,25728,141021,76688
1607,25747,140927,76660
1608,25766,140955,76642
1609,25786,141003,76644
1610,25805,141061,76676
1611,25824,141116,76699
1612,25843,141222,76760
1613,25862,141368,76807
1614,25881,141578,76841
1615,25900,141824,76868
1616,25920,141997,76889
1617,25939,142115,76923
1618,25958,142145,76951
1619,25977,142172,76968
1620,25996,142152,76957
1621,26015,142192,76961
1622,26034,142250,76941
1623,26054,142259,76927
1624,26073,142310,76956
1625,26092,142306,77016
1626,26111,142336,77014
1627,26130,142366,77015
1628,26149,142389,77003
1629,26168,142449,76983
1630,26188,142440,76970
1631,26207,142477,77009
1632,26226,142438,77007
1633,26245,142412,76987
1634,26264,142392,76985
1635,26283,142394,76955
1636,26302,142468,76979
1637,26322,142505,76951
1638,26341,142596,77012
1639,26360,142694,77069
1640,26379,142787,77082
1641,26398,142792,77094
1642,26417,142665,76984
1643,26437,142335,76863
1644,26456,141845,76736
1645,26475,141328,76630
1646,26494,140823,76552
1647,26513,140467,76489
1648,26532,140225,76427
1649,26551,140094,76385
1650,26571,140059,76364
1651,26590,140057,76396
1652,26609,140075,76414
1653,26628,140167,76469
1654,26647,140344,76538
1655,26666,140576,76609
1656,26685,140847,76647
1657,26705,141179,76712
1658,26724,141386,76744
1659,26743,141558,76793
1660,26762,141655,76831
1661,26781,141690,76840
1662,26800,141700,76841
1663,26819,141684,76797
1664,26839,141686,76768
1665,26858,141663,76761
1666,26877,141648,76773
1667,26896,141653,76829
1668,26915,141716,76848
1669,26934,141858,76892
1670,26953,142049,76908
1671,26973,142255,76947
1672,26992,142430,76988
1673,27011,142613,77048
1674,27030,142785,77127
1675,27049,142964,77164
1676,27068,143148,77196
1677,27087,143296,77209
1678,27107,143457,77215
1679,27126,143572,77275
1680,27145,143698,77299
1681,27164,143759,77349
1682,27183,143729,77318
1683,27202,143512,77207
1684,27221,143068,77081
1685,27241,142550,76943
1686,27260,142008,76824
1687,27279,141570,76753
1688,27298,141299,76735
1689,27317,141151,76679
1690,27336,141149,76683
1691,27355,141198,76668
1692,27375,141276,76680
1693,27394,141360,76705
1694,27413,141449,76743
1695,27432,141599,76810
1696,27451,141724,76831
1697,27470,141893,76832
1698,27489,141996,76847
1699,27509,142071,76817
1700,27528,142092,76837
1701,27547,142092,76856
1702,27566,142114,76898
1703,27585,142132,76892
1704,27604,142242,76920
1705,27623,142382,76936
1706,27643,142502,76955
1707,27662,142621,76968
1708,27681,142702,77022
1709,27700,142785,77078
1710,27719,142864,77095
1711,27738,142960,77069
1712,27757,143052,77077
1713,27777,143135,77080
1714,27796,143202,77115
1715,27815,143266,77140
1716,27834,143312,77188
1717,27853,143368,77191
1718,27872,143392,77174
1719,27891,143365,77109
1720,27911,143106,76991
1721,27930,142632,76904
1722,27949,142110,76797
1723,27968,141658,76709
1724,27987,141269,76636
1725,28006,141102,76603
1726,28025,141047,76582
1727,28045,141089,76573
1728,28064,141119,76623
1729,28083,141215,76658
1730,28102,141335,76706
1731,28121,141520,76771
1732,28140,141766,76794
1733,28159,141999,76844
1734,28179,142195,76853
1735,28198,142331,76918
1736,28217,142410,76957
1737,28236,142471,76977
1738,28255,142486,76977
1739,28274,142532,76972
1740,28293,142608,76955
1741,28313,142614,76952
1742,28332,142653,76965
1743,28351,142662,76999
1744,28370,142654,77003
1745,28389,142684,77014
1746,28408,142727,77000
1747,28428,142782,76994
1748,28447,142838,77031
1749,28466,142933,77064
1750,28485,143041,77127
1751,28504,143137,77176
1752,28523,143303,77211
1753,28542,143465,77235
1754,28562,143687,77264
1755,28581,143810,77259
1756,28600,143757,77240
1757,28619,143491,77177
1758,28638,143035,77079
1759,28657,142528,76953
1760,28676,142081,76833
1761,28696,141788,76752
1762,28715,141596,76730
1763,28734,141520,76721
1764,28753,141513,76765
1765,28772,141539,76796
1766,28791,141647,76812
1767,28810,141762,76810
1768,28830,141978,76838
1769,28849,142188,76891
1770,28868,142391,76965
1771,28887,142579,77029
1772,28906,142709,77083
1773,28925,142842,77094
1774,28944,142913,77088
1775,28964,142971,77062
1776,28983,142951,77062
1777,29002,142967,77077
1778,29021,142963,77115
1779,29040,142989,77112
1780,29059,143021,77120
1781,29078,143102,77116
1782,29098,143212,77122
1783,29117,143249,77121
1784,29136,143298,77154
1785,29155,143348,77212
1786,29174,143406,77229
1787,29193,143493,77236
1788,29212,143595,77241
1789,29232,143692,77263
1790,29251,143772,77263
1791,29270,143791,77236
1792,29289,143626,77224
1793,29308,143250,77105
1794,29327,142820,77000
1795,29346,142365,76876
1796,29366,142022,76772
1797,29385,141737,76733
1798,29404,141580,76705
1799,29423,141542,76754
1800,29442,141568,76774
1801,29461,141692,76800
1802,29480,141868,76814
1803,29500,142094,76863
1804,29519,142322,76904
1805,29538,142533,76982
1806,29557,142726,77071
1807,29576,142872,77098
1808,29595,143010,77104
1809,29614,143094,77105
1810,29634,143141,77095
1811,29653,143166,77110
1812,29672,143164,77116
1813,29691,143199,77160
1814,29710,143217,77170
1815,29729,143310,77180
1816,29748,143381,77175
1817,29768,143498,77192
1818,29787,143569,77198
1819,29806,143626,77232
1820,29825,143661,77294
1821,29844,143722,77293
1822,29863,143809,77308
1823,29882,143948,77280
1824,29902,144037,77298
1825,29921,144133,77342
1826,29940,144117,77341
1827,29959,143969,77303
1828,29978,143592,77202
1829,29997,143151,77059
