sample_index,timestamp_ms,ir,red
0,0,168230,97971
1,1,168192,97985
2,1,168201,98023
3,1,168219,98001
4,2,168282,97989
5,2,168321,97993
6,2,168374,97957
7,2,168386,97969
8,2,168391,97969
9,2,168384,97992
10,3,168382,97972
11,3,168369,97934
12,3,168399,97914
13,3,168389,97892
14,3,168428,97891
15,4,168466,97914
16,4,168510,97970
17,4,168529,97956
18,4,168541,97929
19,4,168543,97904
20,4,168549,97891
21,4,168563,97893
22,4,168548,97900
23,5,168301,97869
24,5,167960,97814
25,5,167777,97781
26,5,167678,97734
27,5,167669,97700
28,5,167672,97723
29,5,167684,97705
30,6,167644,97742
31,6,167610,97752
32,6,167634,97747
33,6,167724,97748
34,6,167845,97771
35,7,167927,97781
36,7,168022,97842
37,7,168058,97898
38,7,168138,97930
39,7,168181,97936
40,7,168217,97906
41,7,168299,97879
42,8,168290,97867
43,8,168350,97883
44,8,168344,97911
45,8,168388,97948
46,8,168475,97944
47,8,168541,97945
48,8,168629,97959
49,8,168694,97947
50,9,168720,97967
51,9,168746,97960
52,9,168692,97969
53,9,168431,97887
54,9,168186,97830
55,9,168042,97779
56,9,168038,97756
57,9,168005,97764
58,9,167999,97761
59,9,167990,97784
60,9,167974,97776
61,10,167964,97734
62,10,168020,97724
63,10,168047,97720
64,10,168078,97697
65,10,168101,97715
66,10,168128,97766
67,10,168143,97766
68,10,168162,97766
69,10,168216,97749
70,10,168293,97740
71,10,168283,97729
72,11,168310,97746
73,11,168333,97774
74,11,168367,97793
75,11,168400,97800
76,11,168482,97795
77,11,168574,97784
78,11,168612,97776
79,11,168639,97797
80,11,168681,97857
81,11,168712,97861
82,11,168677,97826
83,11,168420,97722
84,12,168181,97631
85,12,167993,97605
86,12,167942,97614
87,12,167872,97651
88,12,167863,97676
89,12,167877,97678
90,12,167895,97667
91,12,167953,97633
92,12,167965,97624
93,13,167985,97658
94,13,168004,97666
95,13,168014,97687
96,13,168047,97695
97,13,168112,97691
98,13,168193,97674
99,13,168216,97666
100,13,168235,97682
101,13,168228,97683
102,13,168271,97724
103,13,168279,97715
104,13,168348,97720
105,14,168389,97708
106,14,168467,97719
107,14,168533,97725
108,14,168598,97753
109,14,168605,97775
110,14,168629,97782
111,14,168658,97754
112,14,168683,97739
113,14,168744,97736
114,14,168721,97718
115,14,168498,97651
116,14,168171,97644
117,15,167998,97592
118,15,167935,97587
119,15,167942,97581
120,15,167996,97574
121,15,167990,97548
122,15,167987,97563
123,15,167963,97597
124,15,167939,97605
125,15,167970,97580
126,15,168027,97577
127,15,168135,97583
128,15,168142,97579
129,16,168165,97592
130,16,168173,97632
131,16,168192,97634
132,16,168212,97649
133,16,168235,97633
134,16,168276,97616
135,16,168285,97607
136,16,168319,97632
137,16,168314,97657
138,16,168309,97670
139,16,168333,97668
140,16,168363,97669
141,16,168433,97659
142,17,168484,97656
143,17,168509,97673
144,17,168481,97654
145,17,168307,97626
146,17,168123,97596
147,17,168044,97577
148,17,168049,97559
149,17,168011,97538
150,17,168013,97545
151,17,168010,97577
152,17,167999,97587
153,17,168002,97566
154,18,168036,97574
155,18,168053,97563
156,18,168138,97562
157,18,168193,97589
158,18,168228,97605
159,18,168211,97611
160,18,168202,97608
161,18,168230,97600
162,18,168274,97584
163,18,168333,97574
164,18,168374,97597
165,18,168381,97598
166,18,168402,97623
167,19,168436,97623
168,19,168542,97643
169,19,168567,97607
170,19,168654,97612
171,19,168696,97598
172,19,168695,97600
173,19,168674,97628
174,19,168480,97591
175,19,168222,97513
176,19,168031,97454
177,19,168019,97443
178,19,167968,97421
179,19,167957,97421
180,20,167951,97459
181,20,167954,97452
182,20,167938,97458
183,20,167970,97439
184,20,168058,97440
185,20,168090,97421
186,20,168123,97434
187,20,168172,97490
188,20,168209,97489
189,20,168239,97486
190,20,168277,97457
191,20,168336,97458
192,20,168375,97421
193,20,168414,97449
194,21,168455,97493
195,21,168497,97504
196,21,168541,97499
197,21,168612,97495
198,21,168669,97482
199,21,168677,97459
200,21,168736,97480
201,21,168750,97497
202,21,168745,97513
203,21,168700,97475
204,21,168684,97450
205,21,168438,97338
206,21,168115,97265
207,21,167924,97247
208,21,167822,97225
209,22,167779,97229
210,22,167744,97215
211,22,167783,97236
212,22,167797,97213
213,22,167854,97192
214,22,167872,97191
215,22,167909,97217
216,22,167930,97243
217,22,167983,97275
218,22,168077,97279
219,22,168134,97252
220,22,168198,97252
221,22,168198,97231
222,22,168263,97261
223,22,168273,97302
224,22,168293,97314
225,23,168353,97321
226,23,168384,97290
227,23,168468,97289
228,23,168529,97264
229,23,168529,97296
230,23,168521,97315
231,23,168524,97352
232,23,168509,97329
233,23,168552,97325
234,23,168574,97304
235,23,168627,97302
236,23,168608,97303
237,23,168491,97244
238,23,168112,97172
239,24,167802,97141
240,24,167700,97124
241,24,167664,97099
242,24,167705,97079
243,24,167727,97086
244,24,167721,97073
245,24,167707,97130
246,24,167714,97126
247,24,167739,97131
248,24,167800,97112
249,24,167905,97104
250,24,167937,97092
251,24,168009,97124
252,24,168029,97160
253,24,168039,97175
254,25,168064,97173
255,25,168123,97177
256,25,168170,97161
257,25,168219,97167
258,25,168278,97188
259,25,168327,97207
260,25,168367,97228
261,25,168400,97238
262,25,168435,97264
263,35,168458,97214
264,55,168534,97212
265,74,168570,97236
266,93,168569,97221
267,112,168551,97267
268,131,168346,97173
269,150,167991,97125
270,169,167805,97054
271,189,167766,97042
272,208,167742,97046
273,227,167732,97055
274,246,167734,97074
275,265,167772,97096
276,284,167765,97107
277,303,167824,97104
278,322,167898,97112
279,342,167941,97098
280,361,167993,97104
281,380,168028,97135
282,399,168048,97167
283,418,168047,97152
284,437,168111,97144
285,456,168158,97125
286,476,168177,97123
287,495,168203,97141
288,514,168229,97158
289,533,168270,97224
290,552,168303,97188
291,571,168373,97213
292,590,168430,97204
293,610,168536,97200
294,629,168547,97198
295,648,168557,97220
296,667,168567,97243
297,686,168420,97188
298,705,168117,97089
299,724,167849,97039
300,744,167769,97004
301,763,167716,96994
302,782,167724,96999
303,801,167711,97040
304,820,167706,97062
305,839,167736,97038
306,858,167751,97007
307,877,167811,97006
308,897,167868,97002
309,916,167950,97043
310,935,167976,97063
311,954,168006,97070
312,973,168012,97092
313,992,168084,97067
314,1011,168144,97069
315,1031,168199,97045
316,1050,168225,97082
317,1069,168237,97072
318,1088,168278,97118
319,1107,168311,97135
320,1126,168402,97134
321,1145,168433,97104
322,1165,168495,97097
323,1184,168475,97100
324,1203,168513,97111
325,1222,168529,97149
326,1241,168531,97137
327,1260,168536,97152
328,1279,168521,97090
329,1299,168323,97008
330,1318,167927,96921
331,1337,167718,96893
332,1356,167626,96913
333,1375,167618,96936
334,1394,167604,96897
335,1413,167629,96893
336,1432,167674,96890
337,1452,167682,96870
338,1471,167706,96892
339,1490,167717,96918
340,1509,167770,96956
341,1528,167812,96942
342,1547,167891,96949
343,1566,167974,96941
344,1586,168033,96927
345,1605,168076,96952
346,1624,168081,96959
347,1643,168098,96996
348,1662,168111,96985
349,1681,168196,96998
350,1700,168246,96988
351,1720,168308,96976
352,1739,168330,96976
353,1758,168361,96981
354,1777,168371,97019
355,1796,168377,97026
356,1815,168405,97021
357,1834,168414,96984
358,1854,168502,96993
359,1873,168473,96985
360,1892,168497,96992
361,1911,168450,96998
362,1930,168358,96962
363,1949,167983,96867
364,1968,167648,96802
365,1987,167514,96749
366,2007,167461,96733
367,2026,167451,96746
368,2045,167446,96753
369,2064,167452,96776
370,2083,167432,96779
371,2102,167488,96770
372,2121,167520,96765
373,2141,167619,96763
374,2160,167699,96780
375,2179,167766,96805
376,2198,167833,96856
377,2217,167877,96862
378,2236,167901,96862
379,2255,167954,96872
380,2275,168031,96857
381,2294,168055,96839
382,2313,168108,96846
383,2332,168141,96892
384,2351,168149,96905
385,2370,168167,96915
386,2389,168211,96891
387,2408,168260,96883
388,2428,168277,96867
389,2447,168290,96869
390,2466,168304,96888
391,2485,168293,96914
392,2504,168296,96923
393,2523,168327,96919
394,2542,168343,96901
395,2562,168372,96883
396,2581,168283,96854
397,2600,168013,96771
398,2619,167615,96742
399,2638,167444,96712
400,2657,167356,96692
401,2676,167361,96661
402,2695,167402,96668
403,2715,167436,96657
404,2734,167459,96658
405,2753,167457,96680
406,2772,167491,96742
407,2791,167518,96716
408,2810,167630,96734
409,2829,167728,96743
410,2849,167853,96759
411,2868,167901,96761
412,2887,167938,96762
413,2906,167963,96819
414,2925,167966,96821
415,2944,168019,96833
416,2963,168035,96812
417,2982,168111,96810
418,3002,168152,96780
419,3021,168164,96821
420,3040,168146,96850
421,3059,168166,96861
422,3078,168152,96846
423,3097,168194,96844
424,3116,168257,96846
425,3136,168294,96836
426,3155,168306,96885
427,3174,168275,96873
428,3193,168137,96843
429,3212,167752,96755
430,3231,167503,96729
431,3250,167396,96699
432,3270,167413,96666
433,3289,167397,96668
434,3308,167417,96684
435,3327,167432,96697
436,3346,167442,96729
437,3365,167454,96738
438,3384,167518,96727
439,3403,167629,96745
440,3423,167746,96747
441,3442,167807,96757
442,3461,167821,96763
443,3480,167869,96815
444,3499,167892,96802
445,3518,167949,96801
446,3537,167975,96805
447,3557,168058,96790
448,3576,168062,96778
449,3595,168084,96790
450,3614,168107,96842
451,3633,168107,96844
452,3652,168113,96853
453,3671,168153,96826
454,3690,168221,96824
455,3710,168243,96800
456,3729,168247,96804
457,3748,168168,96826
458,3767,168013,96789
459,3786,167655,96706
460,3805,167421,96649
461,3824,167339,96604
462,3844,167328,96584
463,3863,167302,96599
464,3882,167317,96623
465,3901,167312,96662
466,3920,167333,96651
467,3939,167386,96643
468,3958,167456,96646
469,3978,167557,96636
470,3997,167641,96651
471,4016,167729,96690
472,4035,167771,96724
473,4054,167807,96732
474,4073,167843,96755
475,4092,167876,96730
476,4112,167944,96703
477,4131,167980,96703
478,4150,167999,96706
479,4169,168018,96752
480,4188,168034,96749
481,4207,168041,96767
482,4226,168061,96752
483,4245,168106,96715
484,4265,168138,96713
485,4284,168136,96728
486,4303,168145,96747
487,4322,168100,96752
488,4341,167979,96705
489,4360,167688,96613
490,4379,167421,96535
491,4399,167292,96504
492,4418,167245,96484
493,4437,167204,96500
494,4456,167177,96532
495,4475,167174,96516
496,4494,167213,96503
497,4513,167269,96502
498,4533,167352,96522
499,4552,167450,96543
500,4571,167537,96579
501,4590,167625,96641
502,4609,167691,96623
503,4628,167796,96636
504,4647,167845,96613
505,4667,167886,96602
506,4686,167894,96593
507,4705,167897,96617
508,4724,167904,96671
509,4743,167918,96652
510,4762,167953,96641
511,4781,167995,96614
512,4801,168047,96612
513,4820,168020,96611
514,4839,168031,96610
515,4858,168012,96653
516,4877,167987,96652
517,4896,168021,96651
518,4915,168026,96623
519,4935,168068,96610
520,4954,168062,96594
521,4973,167949,96575
522,4992,167647,96522
523,5011,167278,96464
524,5030,167141,96435
525,5049,167090,96412
526,5068,167123,96373
527,5088,167097,96370
528,5107,167131,96380
529,5126,167135,96440
530,5145,167154,96434
531,5164,167191,96447
532,5183,167239,96456
533,5202,167350,96437
534,5222,167412,96447
535,5241,167515,96489
536,5260,167562,96494
537,5279,167589,96523
538,5298,167605,96558
539,5317,167661,96527
540,5336,167722,96509
541,5356,167784,96521
542,5375,167822,96524
543,5394,167811,96552
544,5413,167832,96586
545,5432,167812,96577
546,5451,167860,96557
547,5470,167912,96557
548,5490,167940,96529
549,5509,167953,96562
550,5528,167943,96550
551,5547,167958,96593
552,5566,167938,96584
553,5585,167980,96592
554,5604,167994,96571
555,5624,168014,96557
556,5643,167955,96534
557,5662,167720,96458
558,5681,167354,96408
559,5700,167134,96383
560,5719,167062,96376
561,5738,167086,96358
562,5758,167110,96372
563,5777,167112,96353
564,5796,167114,96376
565,5815,167155,96444
566,5834,167178,96435
567,5853,167262,96454
568,5872,167354,96455
569,5892,167512,96471
570,5911,167596,96469
571,5930,167634,96493
572,5949,167678,96523
573,5968,167685,96540
574,5987,167701,96521
575,6006,167756,96530
576,6026,167820,96523
577,6045,167839,96509
578,6064,167854,96524
579,6083,167883,96568
580,6102,167869,96562
581,6121,167889,96559
582,6140,167920,96553
583,6159,167975,96556
584,6179,168015,96528
585,6198,168009,96546
586,6217,167993,96571
587,6236,167999,96594
588,6255,167977,96591
589,6274,167885,96541
590,6293,167611,96430
591,6313,167313,96373
592,6332,167207,96367
593,6351,167139,96371
594,6370,167119,96405
595,6389,167099,96386
596,6408,167138,96384
597,6427,167185,96363
598,6447,167234,96359
599,6466,167285,96373
600,6485,167330,96405
601,6504,167432,96462
602,6523,167515,96492
603,6542,167609,96494
604,6561,167649,96500
605,6581,167746,96488
606,6600,167743,96491
607,6619,167744,96493
608,6638,167762,96515
609,6657,167782,96529
610,6676,167837,96536
611,6695,167898,96527
612,6715,167959,96533
613,6734,167966,96537
614,6753,167976,96527
615,6772,167975,96570
616,6791,167991,96574
617,6810,168023,96575
618,6829,168062,96562
619,6849,168041,96532
620,6868,167803,96455
621,6887,167446,96408
622,6906,167254,96394
623,6925,167150,96388
624,6944,167108,96383
625,6963,167134,96384
626,6983,167202,96379
627,7002,167228,96381
628,7021,167244,96385
629,7040,167252,96402
630,7059,167274,96425
631,7078,167380,96452
632,7097,167477,96438
633,7117,167590,96426
634,7136,167629,96432
635,7155,167677,96447
636,7174,167656,96474
637,7193,167651,96475
638,7212,167682,96482
639,7231,167754,96471
640,7250,167835,96496
641,7270,167855,96470
642,7289,167890,96490
643,7308,167908,96507
644,7327,167868,96516
645,7346,167902,96520
646,7365,167938,96526
647,7384,167995,96499
648,7404,168012,96468
649,7423,167948,96472
650,7442,167656,96392
651,7461,167291,96351
652,7480,167103,96305
653,7499,167052,96302
654,7518,167088,96268
655,7538,167089,96264
656,7557,167090,96280
657,7576,167122,96322
658,7595,167110,96351
659,7614,167129,96339
660,7633,167190,96328
661,7652,167288,96331
662,7672,167405,96344
663,7691,167497,96371
664,7710,167537,96391
665,7729,167584,96425
666,7748,167595,96441
667,7767,167648,96444
668,7786,167740,96444
669,7806,167780,96447
670,7825,167814,96459
671,7844,167835,96484
672,7863,167826,96512
673,7882,167841,96486
674,7901,167874,96482
675,7920,167881,96460
676,7940,167915,96453
677,7959,167921,96448
678,7978,167911,96461
679,7997,167934,96490
680,8016,167922,96481
681,8035,167957,96475
682,8054,167949,96428
683,8074,167765,96362
684,8093,167331,96276
685,8112,167100,96258
686,8131,166976,96265
687,8150,166938,96263
688,8169,166942,96242
689,8188,166959,96235
690,8208,166986,96226
691,8227,167004,96212
692,8246,167019,96221
693,8265,167047,96270
694,8284,167103,96282
695,8303,167238,96315
696,8322,167336,96320
697,8342,167506,96318
698,8361,167537,96312
699,8380,167580,96331
700,8399,167584,96372
701,8418,167594,96368
702,8437,167615,96381
703,8456,167661,96358
704,8476,167723,96339
705,8495,167759,96317
706,8514,167788,96346
707,8533,167795,96388
708,8552,167777,96390
709,8571,167802,96383
710,8590,167833,96363
711,8609,167890,96358
712,8629,167894,96340
713,8648,167922,96368
714,8667,167893,96389
715,8686,167898,96386
716,8705,167926,96393
717,8724,167935,96380
718,8743,167935,96334
719,8763,167738,96258
720,8782,167379,96192
721,8801,167087,96178
722,8820,166963,96179
723,8839,166906,96160
724,8858,166928,96152
725,8877,166952,96142
726,8897,166967,96125
727,8916,167000,96143
728,8935,166999,96162
729,8954,167022,96205
730,8973,167085,96214
731,8992,167212,96231
732,9011,167331,96245
733,9031,167449,96229
734,9050,167511,96259
735,9069,167498,96271
736,9088,167516,96304
737,9107,167526,96298
738,9126,167587,96311
739,9145,167678,96286
740,9165,167761,96285
741,9184,167779,96324
742,9203,167798,96324
743,9222,167837,96365
744,9241,167819,96363
745,9260,167873,96358
746,9279,167912,96350
747,9299,167962,96346
748,9318,167980,96348
749,9337,167992,96347
750,9356,167991,96394
751,9375,167953,96371
752,9394,167841,96322
753,9413,167481,96222
754,9433,167249,96164
755,9452,167134,96142
756,9471,167102,96163
757,9490,167107,96203
758,9509,167116,96208
759,9528,167131,96215
760,9547,167158,96194
761,9566,167238,96194
762,9586,167258,96169
763,9605,167315,96205
764,9624,167389,96271
765,9643,167461,96286
766,9662,167547,96305
767,9681,167611,96297
768,9700,167687,96303
769,9720,167691,96279
770,9739,167732,96326
771,9758,167768,96351
772,9777,167807,96397
773,9796,167811,96391
774,9815,167894,96374
775,9834,167970,96389
776,9854,168004,96366
777,9873,168041,96395
778,9892,168054,96413
779,9911,168044,96431
780,9930,168051,96445
781,9949,168086,96430
782,9968,168084,96415
783,9988,168019,96373
784,10007,167742,96302
785,10026,167395,96241
786,10045,167217,96233
787,10064,167133,96222
788,10083,167151,96229
789,10102,167169,96208
790,10122,167211,96203
791,10141,167215,96206
792,10160,167222,96215
793,10179,167250,96253
794,10198,167308,96274
795,10217,167404,96267
796,10236,167514,96276
797,10256,167630,96281
798,10275,167668,96279
799,10294,167690,96276
800,10313,167661,96301
801,10332,167685,96320
802,10351,167721,96318
803,10370,167751,96307
804,10390,167844,96288
805,10409,167869,96296
806,10428,167881,96296
807,10447,167886,96340
808,10466,167894,96343
809,10485,167885,96347
810,10504,167909,96313
811,10524,167987,96319
812,10543,167985,96303
813,10562,167982,96315
814,10581,167886,96304
815,10600,167580,96222
816,10619,167227,96159
817,10638,167076,96106
818,10657,167072,96096
819,10677,167064,96075
820,10696,167067,96107
821,10715,167078,96117
822,10734,167075,96149
823,10753,167093,96137
824,10772,167161,96150
825,10791,167254,96144
826,10811,167362,96141
827,10830,167466,96175
828,10849,167528,96226
829,10868,167574,96243
830,10887,167626,96228
831,10906,167681,96241
832,10925,167716,96225
833,10945,167759,96218
834,10964,167806,96226
835,10983,167817,96235
836,11002,167827,96277
837,11021,167820,96267
838,11040,167870,96268
839,11059,167888,96263
840,11079,167950,96241
841,11098,167953,96238
842,11117,167958,96268
843,11136,167957,96285
844,11155,167962,96275
845,11174,167989,96291
846,11193,167997,96282
847,11213,168053,96259
848,11232,168078,96249
849,11251,168058,96244
850,11270,168053,96278
851,11289,168011,96258
852,11308,167908,96214
853,11327,167558,96090
854,11347,167291,96022
855,11366,167146,95985
856,11385,167097,95994
857,11404,167061,96015
858,11423,167047,96035
859,11442,167027,96018
860,11461,167061,96014
861,11480,167116,96000
862,11500,167169,95989
863,11519,167196,96017
864,11538,167253,96037
865,11557,167328,96101
866,11576,167380,96102
867,11595,167460,96087
868,11614,167522,96094
869,11634,167588,96089
870,11653,167600,96099
871,11672,167634,96107
872,11691,167682,96162
873,11710,167696,96153
874,11729,167743,96140
875,11748,167816,96148
876,11768,167854,96129
877,11787,167864,96149
878,11806,167885,96146
879,11825,167890,96195
880,11844,167867,96170
881,11863,167905,96162
882,11882,167924,96157
883,11902,167948,96144
884,11921,167963,96135
885,11940,167982,96153
886,11959,167973,96187
887,11978,167967,96165
888,11997,167949,96190
889,12016,167862,96140
890,12036,167639,96037
891,12055,167322,95970
892,12074,167176,95960
893,12093,167078,95970
894,12112,167062,95982
895,12131,167085,95982
896,12150,167099,95978
897,12169,167148,95959
898,12189,167191,95964
899,12208,167239,95976
900,12227,167282,95999
901,12246,167367,96038
902,12265,167448,96058
903,12284,167570,96062
904,12303,167659,96053
905,12323,167723,96054
906,12342,167744,96079
907,12361,167753,96096
908,12380,167747,96118
909,12399,167757,96133
910,12418,167790,96122
911,12437,167846,96098
912,12457,167894,96089
913,12476,167914,96120
914,12495,167917,96133
915,12514,167909,96138
916,12533,167916,96153
917,12552,167930,96143
918,12571,167977,96142
919,12591,168042,96133
920,12610,168053,96124
921,12629,168046,96141
922,12648,168042,96184
923,12667,167988,96170
924,12686,167904,96122
925,12705,167617,96037
926,12725,167430,95994
927,12744,167319,95971
928,12763,167293,95972
929,12782,167292,96039
930,12801,167291,96023
931,12820,167340,96036
932,12839,167386,96018
933,12859,167484,96042
934,12878,167552,96047
935,12897,167625,96076
936,12916,167698,96133
937,12935,167753,96134
938,12954,167780,96130
939,12973,167818,96134
940,12992,167868,96097
941,13012,167878,96077
942,13031,167921,96103
943,13050,167901,96111
944,13069,167885,96136
945,13088,167899,96145
946,13107,167929,96113
947,13126,167976,96095
948,13146,167997,96081
949,13165,167995,96112
950,13184,167998,96131
951,13203,168013,96153
952,13222,167990,96131
953,13241,168037,96129
954,13260,168032,96101
955,13280,167988,96060
956,13299,167823,96017
957,13318,167489,95956
958,13337,167287,95967
959,13356,167218,95950
960,13375,167243,95938
961,13394,167266,95902
962,13414,167323,95906
963,13433,167357,95936
964,13452,167377,95930
965,13471,167393,95984
966,13490,167446,95994
967,13509,167540,95998
968,13528,167613,96007
969,13547,167710,95986
970,13567,167741,95998
971,13586,167757,95997
972,13605,167759,96019
973,13624,167748,96046
974,13643,167747,96044
975,13662,167761,96016
976,13681,167804,96014
977,13701,167855,95990
978,13720,167869,96000
979,13739,167872,96007
980,13758,167894,96053
981,13777,167879,96047
982,13796,167896,96038
983,13815,167938,96028
984,13835,167993,96019
985,13854,167958,96015
986,13873,167984,96019
987,13892,167968,96053
988,13911,167959,96059
989,13930,167992,96058
990,13949,168000,96028
991,13968,167964,95974
992,13988,167773,95905
993,14007,167444,95864
994,14026,167196,95841
995,14045,167101,95840
996,14064,167063,95846
997,14083,167097,95820
998,14102,167134,95827
999,14122,167166,95810
1000,14141,167204,95835
1001,14160,167215,95836
1002,14179,167253,95886
1003,14198,167329,95903
1004,14217,167424,95908
1005,14236,167522,95916
1006,14256,167617,95911
1007,14275,167644,95918
1008,14294,167655,95926
1009,14313,167686,95965
1010,14332,167717,95974
1011,14351,167747,95990
1012,14370,167779,95965
1013,14390,167855,95958
1014,14409,167852,95952
1015,14428,167861,95972
1016,14447,167846,95988
1017,14466,167848,95998
1018,14485,167852,95994
1019,14504,167885,95981
1020,14523,167915,95971
1021,14543,167949,95953
1022,14562,167965,95968
1023,14581,167962,95988
1024,14600,167982,96015
1025,14619,167938,95997
1026,14638,167944,95989
1027,14657,167836,95937
1028,14677,167588,95851
1029,14696,167318,95814
1030,14715,167184,95793
1031,14734,167128,95831
1032,14753,167104,95815
1033,14772,167119,95828
1034,14791,167130,95802
1035,14811,167210,95798
1036,14830,167232,95798
1037,14849,167288,95831
1038,14868,167367,95885
1039,14887,167473,95891
1040,14906,167556,95935
1041,14925,167642,95937
1042,14944,167700,95931
1043,14964,167744,95913
1044,14983,167737,95950
1045,15002,167744,95956
1046,15021,167740,95979
1047,15040,167723,95978
1048,15059,167770,95987
1049,15078,167817,95959
1050,15098,167891,95964
1051,15117,167905,95966
1052,15136,167899,95978
1053,15155,167875,96027
1054,15174,167918,96028
1055,15193,167949,96044
1056,15212,167958,96020
1057,15232,168010,96020
1058,15251,167965,96028
1059,15270,167852,95961
1060,15289,167494,95923
1061,15308,167227,95912
1062,15327,167111,95876
1063,15346,167096,95857
1064,15365,167116,95847
1065,15385,167141,95835
1066,15404,167173,95861
1067,15423,167135,95881
1068,15442,167155,95915
1069,15461,167181,95912
1070,15480,167274,95926
1071,15499,167409,95927
1072,15519,167507,95938
1073,15538,167600,95954
1074,15557,167619,95990
1075,15576,167671,96044
1076,15595,167674,96035
1077,15614,167723,96030
1078,15633,167785,96014
1079,15653,167823,96008
1080,15672,167863,96004
1081,15691,167881,96009
1082,15710,167870,96040
1083,15729,167866,96051
1084,15748,167866,96046
1085,15767,167910,96032
1086,15786,167953,96002
1087,15806,167960,96008
1088,15825,167978,96024
1089,15844,167958,96024
1090,15863,167934,96031
1091,15882,167790,95978
1092,15901,167440,95883
1093,15920,167235,95822
1094,15940,167142,95798
1095,15959,167089,95802
1096,15978,167071,95787
1097,15997,167098,95845
1098,16016,167081,95823
1099,16035,167145,95827
1100,16054,167162,95840
1101,16074,167247,95815
1102,16093,167311,95822
1103,16112,167391,95859
1104,16131,167474,95920
1105,16150,167553,95933
1106,16169,167577,95931
1107,16188,167638,95909
1108,16207,167697,95895
1109,16227,167728,95878
1110,16246,167755,95922
1111,16265,167762,95933
1112,16284,167786,95959
1113,16303,167771,95949
1114,16322,167826,95955
1115,16341,167890,95948
1116,16361,167902,95917
1117,16380,167922,95939
1118,16399,167924,95939
1119,16418,167919,95973
1120,16437,167903,95954
1121,16456,167934,95964
1122,16475,167990,95948
1123,16495,168012,95927
1124,16514,168041,95936
1125,16533,168048,95940
1126,16552,168028,95955
1127,16571,167953,95936
1128,16590,167749,95890
1129,16609,167403,95791
1130,16628,167231,95715
1131,16648,167131,95688
1132,16667,167124,95706
1133,16686,167077,95721
1134,16705,167070,95751
1135,16724,167080,95744
1136,16743,167109,95735
1137,16762,167188,95727
1138,16782,167242,95720
1139,16801,167319,95756
1140,16820,167371,95769
1141,16839,167457,95809
1142,16858,167512,95835
1143,16877,167576,95822
1144,16896,167618,95813
1145,16916,167686,95818
1146,16935,167711,95816
1147,16954,167700,95820
1148,16973,167727,95854
1149,16992,167735,95878
1150,17011,167759,95863
1151,17030,167794,95856
1152,17049,167856,95849
1153,17069,167865,95828
1154,17088,167886,95866
1155,17107,167890,95867
1156,17126,167894,95881
1157,17145,167880,95878
1158,17164,167917,95861
1159,17183,167956,95862
1160,17203,167979,95851
1161,17222,167991,95883
1162,17241,167982,95892
1163,17260,167965,95895
1164,17279,167840,95853
1165,17298,167649,95772
1166,17317,167315,95701
1167,17337,167199,95656
1168,17356,167171,95652
1169,17375,167160,95678
1170,17394,167165,95724
1171,17413,167176,95715
1172,17432,167205,95731
1173,17451,167240,95709
1174,17471,167307,95707
1175,17490,167350,95712
1176,17509,167450,95770
1177,17528,167542,95821
1178,17547,167627,95853
1179,17566,167653,95872
1180,17585,167726,95868
1181,17604,167788,95866
1182,17624,167830,95870
1183,17643,167896,95881
1184,17662,167896,95900
1185,17681,167928,95936
1186,17700,167920,95935
1187,17719,167954,95927
1188,17738,167967,95920
1189,17758,168039,95909
1190,17777,168041,95910
1191,17796,168033,95927
1192,17815,168029,95979
1193,17834,168046,95987
1194,17853,168062,95964
1195,17872,168059,95952
1196,17892,168124,95935
1197,17911,168088,95935
1198,17930,167995,95900
1199,17949,167704,95863
1200,17968,167416,95799
1201,17987,167297,95786
1202,18006,167277,95774
1203,18025,167336,95787
1204,18045,167351,95748
1205,18064,167364,95782
1206,18083,167365,95822
1207,18102,167399,95824
1208,18121,167436,95852
1209,18140,167537,95878
1210,18159,167683,95888
1211,18179,167783,95874
1212,18198,167832,95892
1213,18217,167876,95916
1214,18236,167884,95942
1215,18255,167883,95941
1216,18274,167886,95943
1217,18293,167921,95936
1218,18313,167990,95926
1219,18332,168026,95924
1220,18351,168047,95921
1221,18370,168011,95945
1222,18389,168012,95961
1223,18408,168030,95971
1224,18427,168056,95952
1225,18446,168128,95948
1226,18466,168126,95910
1227,18485,168163,95936
1228,18504,168130,95949
1229,18523,168038,95954
1230,18542,167863,95893
1231,18561,167527,95789
1232,18580,167379,95762
1233,18600,167341,95721
1234,18619,167288,95731
1235,18638,167278,95756
1236,18657,167278,95764
1237,18676,167297,95775
1238,18695,167355,95789
1239,18714,167372,95768
1240,18734,167482,95782
1241,18753,167567,95774
1242,18772,167663,95812
1243,18791,167753,95854
1244,18810,167783,95872
1245,18829,167823,95872
1246,18848,167849,95853
1247,18867,167917,95859
1248,18887,167917,95834
1249,18906,167930,95846
1250,18925,167937,95887
1251,18944,167958,95905
1252,18963,167953,95879
1253,18982,168000,95883
1254,19001,168031,95859
1255,19021,168055,95837
1256,19040,168077,95848
1257,19059,168062,95859
1258,19078,168048,95907
1259,19097,168038,95881
1260,19116,168049,95878
1261,19135,168093,95855
1262,19155,168079,95842
1263,19174,168010,95802
1264,19193,167800,95743
1265,19212,167460,95709
1266,19231,167280,95682
1267,19250,167226,95670
1268,19269,167226,95652
1269,19288,167269,95628
1270,19308,167254,95635
1271,19327,167319,95651
1272,19346,167332,95683
1273,19365,167341,95713
1274,19384,167425,95695
1275,19403,167514,95724
1276,19422,167633,95732
1277,19442,167738,95738
1278,19461,167755,95735
1279,19480,167757,95746
1280,19499,167748,95783
1281,19518,167724,95781
1282,19537,167772,95763
1283,19556,167799,95759
1284,19576,167867,95741
1285,19595,167846,95752
1286,19614,167861,95761
1287,19633,167894,95793
1288,19652,167881,95825
1289,19671,167881,95815
1290,19690,167922,95798
1291,19709,168004,95788
1292,19729,167985,95761
1293,19748,167996,95775
1294,19767,167961,95799
1295,19786,167968,95811
1296,19805,167959,95809
1297,19824,167987,95798
1298,19843,168036,95787
1299,19863,168066,95764
1300,19882,168008,95766
1301,19901,167871,95723
1302,19920,167530,95667
1303,19939,167296,95636
1304,19958,167215,95624
1305,19977,167241,95598
1306,19997,167244,95607
1307,20016,167254,95594
1308,20035,167248,95613
1309,20054,167253,95651
1310,20073,167267,95629
1311,20092,167324,95653
1312,20111,167424,95668
1313,20131,167559,95676
1314,20150,167658,95698
1315,20169,167743,95700
1316,20188,167754,95751
1317,20207,167764,95766
1318,20226,167808,95773
1319,20245,167837,95757
1320,20264,167905,95753
1321,20284,167901,95745
1322,20303,167930,95777
1323,20322,167923,95806
1324,20341,167912,95816
1325,20360,167918,95837
1326,20379,167948,95805
1327,20398,168000,95804
1328,20418,168018,95777
1329,20437,168016,95796
1330,20456,168016,95812
1331,20475,168022,95852
1332,20494,167999,95843
1333,20513,168032,95834
1334,20532,168023,95805
1335,20552,167949,95776
1336,20571,167606,95660
1337,20590,167364,95643
1338,20609,167235,95661
1339,20628,167184,95655
1340,20647,167190,95662
1341,20666,167243,95652
1342,20686,167306,95668
1343,20705,167328,95641
1344,20724,167366,95672
1345,20743,167383,95712
1346,20762,167453,95730
1347,20781,167574,95754
1348,20800,167679,95762
1349,20819,167767,95753
1350,20839,167782,95725
1351,20858,167785,95753
1352,20877,167781,95776
1353,20896,167794,95806
1354,20915,167804,95807
1355,20934,167859,95802
1356,20953,167894,95779
1357,20973,167939,95773
1358,20992,167975,95779
1359,21011,167948,95773
1360,21030,167967,95828
1361,21049,167980,95823
1362,21068,167996,95835
1363,21087,168010,95804
1364,21107,168050,95787
1365,21126,168041,95777
1366,21145,167970,95768
1367,21164,167724,95722
1368,21183,167359,95648
1369,21202,167210,95629
1370,21221,167141,95576
1371,21241,167186,95586
1372,21260,167163,95582
1373,21279,167181,95590
1374,21298,167176,95620
1375,21317,167174,95618
1376,21336,167215,95614
1377,21355,167294,95616
1378,21375,167398,95619
1379,21394,167491,95642
1380,21413,167562,95659
1381,21432,167615,95702
1382,21451,167653,95707
1383,21470,167665,95709
1384,21489,167732,95682
1385,21508,167793,95679
1386,21528,167834,95669
1387,21547,167836,95690
1388,21566,167865,95709
1389,21585,167889,95742
1390,21604,167875,95711
1391,21623,167907,95726
1392,21642,167966,95695
1393,21662,167973,95666
1394,21681,168008,95705
1395,21700,167993,95713
1396,21719,168009,95740
1397,21738,167975,95712
1398,21757,168017,95722
1399,21776,168065,95715
1400,21796,168071,95682
1401,21815,168025,95671
1402,21834,167835,95603
1403,21853,167450,95557
1404,21872,167214,95523
1405,21891,167167,95502
1406,21910,167167,95488
1407,21930,167193,95461
1408,21949,167205,95450
1409,21968,167198,95481
1410,21987,167200,95503
1411,22006,167204,95508
1412,22025,167231,95525
1413,22044,167301,95507
1414,22064,167432,95521
1415,22083,167514,95530
1416,22102,167583,95552
1417,22121,167607,95593
1418,22140,167637,95604
1419,22159,167641,95624
1420,22178,167698,95596
1421,22197,167750,95584
1422,22217,167811,95576
1423,22236,167830,95592
1424,22255,167836,95623
1425,22274,167847,95628
1426,22293,167837,95646
1427,22312,167868,95625
1428,22331,167945,95602
1429,22351,167969,95594
1430,22370,167973,95606
1431,22389,167967,95632
1432,22408,167978,95676
1433,22427,167973,95653
1434,22446,167971,95656
1435,22465,168038,95640
1436,22485,168062,95634
1437,22504,168062,95617
1438,22523,168021,95632
1439,22542,167924,95635
1440,22561,167642,95552
1441,22580,167365,95497
1442,22599,167247,95454
1443,22619,167231,95454
1444,22638,167210,95443
1445,22657,167197,95466
1446,22676,167204,95503
1447,22695,167203,95500
1448,22714,167256,95495
1449,22733,167318,95491
1450,22753,167387,95516
1451,22772,167459,95510
1452,22791,167559,95540
1453,22810,167616,95615
1454,22829,167650,95606
1455,22848,167699,95622
1456,22867,167768,95624
1457,22887,167854,95606
1458,22906,167864,95612
1459,22925,167890,95644
1460,22944,167899,95666
1461,22963,167915,95667
1462,22982,167912,95676
1463,23001,167945,95666
1464,23020,167998,95640
1465,23040,168003,95633
1466,23059,168019,95666
1467,23078,168013,95673
1468,23097,168026,95690
1469,23116,168045,95696
1470,23135,168062,95693
1471,23154,168099,95675
1472,23174,168102,95657
1473,23193,168033,95673
1474,23212,167806,95609
1475,23231,167443,95570
1476,23250,167283,95546
1477,23269,167231,95518
1478,23288,167274,95506
1479,23308,167281,95498
1480,23327,167318,95517
1481,23346,167338,95543
1482,23365,167352,95585
1483,23384,167375,95577
1484,23403,167418,95589
1485,23422,167556,95584
1486,23442,167655,95583
1487,23461,167717,95603
1488,23480,167757,95617
1489,23499,167803,95662
1490,23518,167812,95643
1491,23537,167849,95668
1492,23556,167889,95632
1493,23576,167944,95638
1494,23595,167975,95636
1495,23614,167979,95617
1496,23633,167993,95681
1497,23652,167988,95693
1498,23671,168007,95668
1499,23690,168039,95663
1500,23710,168081,95633
1501,23729,168092,95634
1502,23748,168110,95646
1503,23767,168090,95690
1504,23786,168056,95678
1505,23805,167978,95657
1506,23824,167761,95558
1507,23844,167519,95489
1508,23863,167358,95439
1509,23882,167296,95443
1510,23901,167272,95468
1511,23920,167259,95487
1512,23939,167258,95478
1513,23958,167290,95472
1514,23977,167381,95464
1515,23997,167388,95451
1516,24016,167423,95480
1517,24035,167471,95525
1518,24054,167535,95564
1519,24073,167644,95565
1520,24092,167739,95566
1521,24111,167815,95562
1522,24131,167833,95547
1523,24150,167835,95554
1524,24169,167840,95604
1525,24188,167848,95601
1526,24207,167866,95620
1527,24226,167915,95586
1528,24245,167981,95573
1529,24265,167995,95577
1530,24284,168016,95600
1531,24303,167998,95608
1532,24322,167995,95640
1533,24341,167982,95634
1534,24360,168011,95629
1535,24379,168053,95618
1536,24399,168087,95588
1537,24418,168070,95605
1538,24437,168040,95611
1539,24456,167886,95559
1540,24475,167553,95480
1541,24494,167326,95437
1542,24513,167222,95385
1543,24533,167200,95370
1544,24552,167208,95360
1545,24571,167188,95366
1546,24590,167163,95413
1547,24609,167151,95398
1548,24628,167192,95408
1549,24647,167219,95382
1550,24667,167300,95374
1551,24686,167358,95403
1552,24705,167434,95398
1553,24724,167466,95462
1554,24743,167522,95450
1555,24762,167548,95490
1556,24781,167599,95462
1557,24801,167667,95454
1558,24820,167680,95454
1559,24839,167712,95471
1560,24858,167769,95516
1561,24877,167798,95525
1562,24896,167831,95539
1563,24915,167875,95514
1564,24935,167938,95492
1565,24954,167950,95500
1566,24973,167977,95529
1567,24992,167972,95547
1568,25011,167977,95552
1569,25030,167996,95551
1570,25049,168031,95535
1571,25068,168078,95535
1572,25088,168084,95523
1573,25107,168094,95532
1574,25126,168086,95570
1575,25145,168100,95590
1576,25164,168088,95586
1577,25183,168018,95533
1578,25202,167817,95446
1579,25222,167454,95377
1580,25241,167292,95376
1581,25260,167218,95383
1582,25279,167200,95404
1583,25298,167205,95387
1584,25317,167243,95384
1585,25336,167303,95376
1586,25356,167363,95381
1587,25375,167368,95390
1588,25394,167429,95442
1589,25413,167516,95475
1590,25432,167582,95490
1591,25451,167683,95523
1592,25470,167740,95520
1593,25490,167816,95513
1594,25509,167835,95523
1595,25528,167852,95526
1596,25547,167845,95562
1597,25566,167877,95571
1598,25585,167925,95553
1599,25604,167946,95549
1600,25624,168006,95508
1601,25643,167994,95470
1602,25662,168018,95444
1603,25681,168027,95441
1604,25700,168083,95430
1605,25719,168095,95432
1606,25738,168136,95413
1607,25758,168168,95385
1608,25777,168181,95362
1609,25796,168197,95366
1610,25815,168163,95373
1611,25834,168059,95324
1612,25853,167757,95260
1613,25872,167543,95196
1614,25892,167484,95158
1615,25911,167460,95153
1616,25930,167451,95160
1617,25949,167435,95196
1618,25968,167437,95207
1619,25987,167450,95213
1620,26006,167464,95198
1621,26025,167581,95209
1622,26045,167629,95205
1623,26064,167729,95248
1624,26083,167809,95289
1625,26102,167888,95326
1626,26121,167892,95332
1627,26140,167921,95328
1628,26159,167979,95315
1629,26179,167998,95295
1630,26198,168035,95335
1631,26217,168021,95338
1632,26236,168037,95380
1633,26255,168037,95363
1634,26274,168063,95345
1635,26293,168109,95340
1636,26313,168143,95334
1637,26332,168143,95315
1638,26351,168125,95357
1639,26370,168146,95376
1640,26389,168121,95353
1641,26408,168163,95347
1642,26427,168168,95347
1643,26447,168131,95307
1644,26466,167862,95222
1645,26485,167576,95159
1646,26504,167388,95170
1647,26523,167289,95147
1648,26542,167304,95149
1649,26561,167300,95154
1650,26581,167345,95129
1651,26600,167343,95117
1652,26619,167369,95137
1653,26638,167384,95186
1654,26657,167415,95183
1655,26676,167482,95217
1656,26695,167578,95199
1657,26715,167683,95214
1658,26734,167737,95209
1659,26753,167785,95246
1660,26772,167798,95258
1661,26791,167833,95269
1662,26810,167863,95288
1663,26829,167904,95268
1664,26848,167967,95263
1665,26868,168009,95259
1666,26887,168042,95285
1667,26906,168014,95286
1668,26925,168030,95326
1669,26944,168013,95333
1670,26963,168043,95308
1671,26982,168103,95303
1672,27002,168137,95283
1673,27021,168139,95302
1674,27040,168115,95318
1675,27059,168098,95359
1676,27078,168091,95341
1677,27097,168133,95318
1678,27116,168161,95302
1679,27136,168174,95304
1680,27155,168105,95285
1681,27174,167871,95223
1682,27193,167511,95202
1683,27212,167313,95134
1684,27231,167239,95141
1685,27250,167263,95119
1686,27270,167296,95104
1687,27289,167290,95112
1688,27308,167295,95108
1689,27327,167313,95161
1690,27346,167308,95147
1691,27365,167376,95155
1692,27384,167448,95172
1693,27404,167578,95183
1694,27423,167656,95190
1695,27442,167737,95218
1696,27461,167773,95257
1697,27480,167798,95261
1698,27499,167851,95281
1699,27518,167880,95264
1700,27538,167965,95264
1701,27557,167989,95253
1702,27576,168004,95259
1703,27595,167997,95299
1704,27614,168004,95318
1705,27633,168032,95293
1706,27652,168055,95305
1707,27672,168113,95287
1708,27691,168129,95276
1709,27710,168156,95292
1710,27729,168135,95327
1711,27748,168142,95331
1712,27767,168138,95336
1713,27786,168167,95322
1714,27805,168243,95301
1715,27825,168249,95295
1716,27844,168254,95323
1717,27863,168218,95320
1718,27882,168078,95290
1719,27901,167759,95209
1720,27920,167513,95155
1721,27939,167465,95122
1722,27959,167432,95109
1723,27978,167425,95145
1724,27997,167413,95148
1725,28016,167406,95174
1726,28035,167401,95180
1727,28054,167443,95171
1728,28073,167480,95171
1729,28093,167556,95178
1730,28112,167667,95203
1731,28131,167752,95230
1732,28150,167815,95268
1733,28169,167861,95288
1734,28188,167890,95270
1735,28207,167933,95276
1736,28227,168011,95259
1737,28246,168019,95279
1738,28265,168028,95291
1739,28284,168063,95333
1740,28303,168050,95325
1741,28322,168083,95322
1742,28341,168136,95310
1743,28361,168183,95285
1744,28380,168175,95288
1745,28399,168182,95298
1746,28418,168198,95337
1747,28437,168189,95333
1748,28456,168205,95351
1749,28475,168215,95313
1750,28494,168212,95285
1751,28514,168011,95202
1752,28533,167708,95154
1753,28552,167540,95150
1754,28571,167455,95151
1755,28590,167428,95147
1756,28609,167442,95137
1757,28628,167493,95135
1758,28648,167512,95109
1759,28667,167552,95131
1760,28686,167553,95165
1761,28705,167580,95192
1762,28724,167647,95194
1763,28743,167762,95228
1764,28762,167858,95206
1765,28782,167912,95192
1766,28801,167946,95214
1767,28820,167935,95242
1768,28839,167931,95251
1769,28858,167930,95251
1770,28877,167997,95247
1771,28896,168039,95234
1772,28916,168085,95232
1773,28935,168089,95242
1774,28954,168094,95233
1775,28973,168093,95274
1776,28992,168092,95267
1777,29011,168126,95273
1778,29030,168164,95251
1779,29050,168244,95223
1780,29069,168236,95246
1781,29088,168268,95255
1782,29107,168199,95277
1783,29126,168080,95230
1784,29145,167800,95164
1785,29164,167569,95092
1786,29184,167523,95062
1787,29203,167487,95067
1788,29222,167490,95061
1789,29241,167489,95100
1790,29260,167497,95105
1791,29279,167535,95099
1792,29298,167580,95092
1793,29317,167675,95098
1794,29337,167735,95097
1795,29356,167818,95124
1796,29375,167867,95151
1797,29394,167922,95188
1798,29413,167976,95182
1799,29432,168000,95169
1800,29451,168051,95169
1801,29471,168087,95152
1802,29490,168074,95171
1803,29509,168074,95194
1804,29528,168102,95210
1805,29547,168095,95191
1806,29566,168124,95188
1807,29585,168159,95177
1808,29605,168195,95160
1809,29624,168183,95182
1810,29643,168178,95179
1811,29662,168189,95229
1812,29681,168158,95214
1813,29700,168185,95208
1814,29719,168213,95213
1815,29739,168249,95178
1816,29758,168278,95200
1817,29777,168255,95201
1818,29796,168242,95233
1819,29815,168242,95233
1820,29834,168234,95226
1821,29853,168124,95159
1822,29873,167817,95047
1823,29892,167578,95024
1824,29911,167517,95018
1825,29930,167416,95034
1826,29949,167422,95038
1827,29968,167434,95041
1828,29987,167466,95024
