sample_index,timestamp_ms,ir,red
0,0,162178,86275
1,1,162191,86289
2,1,162193,86295
3,1,162219,86349
4,2,162236,86360
5,2,162305,86349
6,2,162308,86317
7,3,162311,86300
8,3,162294,86288
9,3,162275,86310
10,3,162291,86351
11,3,162358,86375
12,3,162452,86395
13,4,162542,86378
14,4,162608,86379
15,4,162634,86366
16,4,162630,86383
17,4,162645,86433
18,5,162686,86441
19,5,162767,86446
20,5,162804,86447
21,5,162918,86442
22,6,162945,86445
23,6,162994,86477
24,6,163036,86507
25,6,163064,86506
26,6,163062,86521
27,7,162980,86465
28,7,162841,86403
29,7,162644,86366
30,7,162464,86332
31,7,162358,86355
32,8,162300,86360
33,8,162249,86327
34,8,162227,86312
35,8,162214,86294
36,8,162185,86278
37,8,162213,86293
38,9,162244,86326
39,9,162281,86359
40,9,162262,86333
41,9,162290,86325
42,9,162395,86328
43,9,162442,86306
44,9,162432,86317
45,10,162343,86308
46,10,162273,86336
47,10,162255,86313
48,10,162308,86333
49,10,162435,86326
50,10,162445,86298
51,10,162459,86329
52,10,162457,86355
53,10,162535,86381
54,10,162632,86426
55,10,162734,86428
56,11,162817,86410
57,11,162839,86379
58,11,162848,86409
59,11,162898,86448
60,11,162976,86497
61,11,163041,86509
62,11,163086,86488
63,11,163164,86474
64,11,163181,86456
65,11,163164,86470
66,11,163124,86465
67,12,163062,86469
68,12,162905,86433
69,12,162740,86359
70,12,162565,86309
71,12,162431,86250
72,12,162325,86265
73,12,162232,86249
74,12,162110,86242
75,12,161995,86213
76,12,161945,86199
77,12,161971,86179
78,13,162022,86186
79,13,162055,86198
80,13,162065,86229
81,13,162076,86242
82,13,162074,86221
83,13,162070,86218
84,13,162069,86197
85,13,162081,86174
86,13,162072,86178
87,14,162087,86218
88,14,162101,86242
89,14,162098,86246
90,14,162165,86244
91,14,162276,86267
92,14,162358,86258
93,14,162365,86264
94,14,162431,86286
95,14,162465,86339
96,14,162485,86317
97,14,162482,86307
98,15,162494,86287
99,15,162547,86272
100,15,162582,86276
101,15,162657,86316
102,15,162662,86340
103,15,162652,86325
104,15,162731,86352
105,15,162807,86341
106,15,162951,86365
107,15,163014,86361
108,15,163029,86371
109,15,162916,86377
110,15,162710,86318
111,16,162541,86272
112,16,162357,86203
113,16,162266,86169
114,16,162149,86142
115,16,162085,86145
116,16,161987,86158
117,16,161928,86128
118,16,161897,86135
119,16,161881,86097
120,16,161926,86093
121,16,161938,86096
122,16,161978,86101
123,17,162045,86178
124,17,162166,86207
125,17,162280,86225
126,17,162333,86201
127,17,162377,86180
128,17,162341,86173
129,17,162393,86220
130,17,162479,86252
131,17,162579,86292
132,17,162637,86292
133,17,162662,86277
134,17,162705,86268
135,17,162718,86240
136,18,162761,86252
137,18,162735,86292
138,18,162784,86321
139,18,162820,86319
140,18,162859,86292
141,18,162939,86285
142,18,162926,86251
143,18,162912,86266
144,18,162876,86270
145,18,162873,86292
146,18,162916,86319
147,18,163036,86324
148,19,163095,86303
149,19,163092,86279
150,19,162992,86231
151,19,162787,86206
152,19,162506,86165
153,19,162290,86123
154,19,162148,86074
155,19,162103,86065
156,19,162130,86024
157,19,162032,85999
158,19,161930,86002
159,19,161847,86027
160,19,161845,86019
161,19,161957,86053
162,20,162074,86044
163,20,162160,86055
164,20,162199,86065
165,20,162211,86069
166,20,162203,86126
167,20,162197,86116
168,20,162265,86123
169,20,162314,86136
170,20,162405,86138
171,20,162518,86186
172,20,162603,86230
173,20,162585,86241
174,20,162531,86230
175,20,162524,86224
176,20,162530,86204
177,21,162601,86191
178,21,162577,86182
179,21,162490,86137
180,21,162356,86135
181,21,162231,86109
182,21,162185,86092
183,21,162205,86031
184,21,162171,86016
185,21,162067,85995
186,21,162097,86029
187,21,162163,86077
188,21,162241,86075
189,21,162223,86048
190,21,162062,85972
191,21,161822,85888
192,22,161540,85835
193,22,161344,85803
194,22,161148,85781
195,22,161021,85760
196,22,160916,85739
197,22,160863,85689
198,22,160860,85704
199,22,160825,85670
200,22,160765,85668
201,22,160735,85705
202,22,160805,85723
203,22,160867,85742
204,22,160913,85719
205,22,160960,85701
206,22,160910,85681
207,23,160873,85691
208,23,160801,85695
209,23,160768,85714
210,23,160762,85693
211,23,160748,85655
212,23,160800,85660
213,23,160831,85640
214,23,160875,85672
215,23,160893,85704
216,23,160915,85715
217,23,160934,85720
218,24,160941,85695
219,24,160964,85695
220,24,161012,85680
221,24,161047,85695
222,24,161024,85714
223,24,160963,85716
224,24,160978,85721
225,24,161004,85712
226,24,161060,85705
227,24,161063,85668
228,24,161006,85667
229,24,160807,85617
230,24,160527,85577
231,24,160298,85533
232,25,160165,85492
233,25,160061,85441
234,25,159972,85415
235,25,159832,85378
236,25,159726,85398
237,25,159734,85434
238,25,159729,85421
239,25,159805,85441
240,25,159883,85424
241,25,159925,85407
242,25,159916,85430
243,25,159903,85430
244,25,159891,85455
245,25,159836,85429
246,25,159809,85430
247,25,159797,85390
248,25,159888,85391
249,26,159968,85439
250,26,160036,85454
251,26,160037,85497
252,26,160007,85481
253,26,160064,85482
254,26,160117,85494
255,26,160205,85494
256,26,160210,85484
257,26,160172,85471
258,26,160138,85511
259,26,160187,85537
260,26,160298,85539
261,26,160406,85543
262,26,160485,85531
263,35,160488,85537
264,53,160469,85538
265,72,160493,85574
266,91,160552,85601
267,110,160608,85609
268,129,160634,85582
269,150,160693,85592
270,168,160684,85561
271,187,160611,85537
272,207,160410,85529
273,225,160149,85449
274,245,159839,85396
275,263,159600,85323
276,283,159507,85287
277,302,159424,85270
278,321,159357,85271
279,340,159284,85283
280,359,159159,85260
281,378,159034,85228
282,397,158996,85200
283,416,159094,85213
284,436,159150,85230
285,456,159201,85248
286,474,159209,85258
287,493,159160,85279
288,512,159223,85283
289,531,159311,85279
290,550,159374,85277
291,570,159363,85264
292,589,159339,85268
293,608,159305,85286
294,627,159343,85320
295,646,159425,85327
296,665,159483,85326
297,684,159564,85323
298,704,159624,85317
299,723,159686,85360
300,742,159729,85389
301,762,159815,85439
302,780,159864,85430
303,799,159934,85439
304,819,160016,85424
305,839,160059,85419
306,857,160118,85439
307,876,160152,85493
308,896,160186,85507
309,915,160160,85490
310,934,160205,85506
311,953,160291,85517
312,972,160386,85493
313,991,160426,85513
314,1010,160349,85506
315,1029,160249,85507
316,1048,160044,85460
317,1067,159864,85407
318,1086,159675,85329
319,1106,159507,85268
320,1125,159322,85241
321,1144,159213,85241
322,1163,159164,85263
323,1182,159122,85247
324,1202,159075,85241
325,1220,159027,85203
326,1240,158999,85187
327,1259,159036,85200
328,1279,159128,85239
329,1297,159232,85295
330,1316,159270,85296
331,1336,159244,85287
332,1354,159297,85293
333,1375,159389,85300
334,1393,159482,85310
335,1413,159517,85312
336,1431,159460,85344
337,1450,159459,85345
338,1470,159538,85395
339,1488,159672,85379
340,1509,159808,85385
341,1527,159776,85382
342,1546,159763,85378
343,1566,159786,85440
344,1585,159843,85443
345,1603,159866,85463
346,1622,159885,85442
347,1643,159935,85436
348,1661,159943,85440
349,1681,160008,85474
350,1700,160037,85518
351,1719,160007,85488
352,1737,159994,85487
353,1757,160017,85462
354,1777,160138,85485
355,1795,160215,85513
356,1814,160315,85544
357,1834,160300,85562
358,1853,160250,85551
359,1871,160175,85520
360,1890,160054,85462
361,1911,159976,85438
362,1929,159760,85363
363,1949,159440,85309
364,1968,159168,85287
365,1987,158986,85266
366,2006,158935,85283
367,2025,158916,85226
368,2045,158834,85181
369,2063,158675,85153
370,2083,158615,85168
371,2102,158649,85206
372,2120,158742,85251
373,2140,158752,85240
374,2159,158722,85198
375,2179,158766,85190
376,2198,158724,85180
377,2217,158704,85202
378,2236,158686,85232
379,2255,158629,85213
380,2274,158555,85208
381,2292,158488,85172
382,2312,158541,85151
383,2331,158634,85178
384,2351,158723,85198
385,2369,158713,85236
386,2388,158650,85236
387,2408,158620,85214
388,2427,158710,85222
389,2447,158813,85230
390,2465,158869,85229
391,2484,158840,85245
392,2503,158822,85280
393,2523,158837,85283
394,2542,158837,85297
395,2561,158913,85276
396,2581,159023,85289
397,2600,159133,85326
398,2619,159273,85370
399,2638,159425,85443
400,2657,159464,85462
401,2676,159429,85440
402,2695,159330,85381
403,2715,159242,85353
404,2734,159183,85327
405,2753,159076,85324
406,2772,158960,85328
407,2791,158843,85315
408,2809,158787,85305
409,2829,158802,85293
410,2849,158912,85278
411,2868,158933,85280
412,2887,158975,85322
413,2906,159046,85376
414,2925,159196,85434
415,2943,159322,85479
416,2963,159439,85450
417,2982,159504,85446
418,3001,159521,85431
419,3021,159517,85456
420,3040,159543,85482
421,3059,159545,85507
422,3078,159522,85494
423,3097,159577,85462
424,3116,159637,85472
425,3136,159713,85482
426,3155,159734,85511
427,3174,159732,85532
428,3193,159767,85545
429,3212,159826,85571
430,3230,159902,85561
431,3249,159941,85531
432,3270,159869,85497
433,3289,159821,85525
434,3308,159854,85536
435,3327,159940,85581
436,3345,160072,85632
437,3364,160246,85652
438,3383,160492,85668
439,3404,160478,85632
440,3423,160376,85630
441,3442,160108,85567
442,3461,159888,85541
443,3480,159749,85504
444,3499,159676,85486
445,3517,159619,85445
446,3538,159468,85396
447,3556,159376,85412
448,3576,159307,85379
449,3595,159211,85399
450,3614,159148,85385
451,3633,159175,85377
452,3652,159237,85388
453,3672,159329,85387
454,3691,159386,85394
455,3710,159448,85449
456,3729,159520,85476
457,3748,159564,85476
458,3767,159625,85468
459,3786,159681,85472
460,3806,159702,85464
461,3825,159767,85477
462,3844,159798,85521
463,3863,159913,85564
464,3882,160015,85570
465,3901,160087,85573
466,3920,160169,85575
467,3940,160317,85601
468,3959,160498,85627
469,3978,160631,85668
470,3996,160715,85721
471,4016,160762,85728
472,4035,160877,85752
473,4054,161006,85762
474,4074,161161,85786
475,4093,161306,85808
476,4112,161461,85856
477,4131,161664,85940
478,4150,161823,85971
479,4169,161793,85934
480,4188,161643,85838
481,4208,161466,85796
482,4227,161274,85747
483,4246,161161,85742
484,4265,161010,85737
485,4284,160864,85709
486,4303,160747,85698
487,4322,160734,85663
488,4341,160747,85653
489,4361,160724,85629
490,4380,160726,85642
491,4399,160715,85666
492,4417,160749,85699
493,4436,160775,85706
494,4456,160796,85682
495,4475,160825,85677
496,4495,160847,85660
497,4514,160859,85704
498,4533,160908,85705
499,4552,160918,85741
500,4570,160861,85707
501,4590,160821,85689
502,4609,160796,85669
503,4629,160811,85653
504,4648,160834,85650
505,4667,160846,85699
506,4686,160905,85737
507,4705,160956,85744
508,4724,161030,85747
509,4743,161093,85732
510,4763,161145,85732
511,4782,161158,85744
512,4801,161207,85761
513,4820,161234,85800
514,4839,161272,85833
515,4858,161398,85840
516,4877,161494,85851
517,4897,161576,85842
518,4916,161578,85828
519,4935,161467,85805
520,4954,161317,85821
521,4973,161152,85761
522,4992,161017,85741
523,5010,160912,85705
524,5031,160838,85666
525,5050,160736,85649
526,5069,160649,85644
527,5088,160546,85648
528,5107,160468,85623
529,5126,160442,85603
530,5145,160478,85626
531,5165,160598,85626
532,5184,160653,85634
533,5203,160686,85656
534,5222,160684,85691
535,5241,160667,85678
536,5260,160651,85658
537,5279,160622,85629
538,5299,160664,85616
539,5318,160681,85636
540,5337,160721,85654
541,5356,160726,85688
542,5375,160691,85689
543,5394,160727,85678
544,5413,160779,85669
545,5433,160880,85681
546,5452,160978,85704
547,5471,161042,85710
548,5489,161091,85785
549,5509,161110,85768
550,5528,161167,85764
551,5547,161204,85756
552,5567,161284,85749
553,5586,161314,85761
554,5605,161331,85771
555,5624,161377,85833
556,5643,161411,85834
557,5662,161458,85809
558,5681,161455,85789
559,5701,161406,85757
560,5720,161206,85697
561,5739,160952,85646
562,5758,160731,85663
563,5777,160581,85618
564,5796,160512,85598
565,5815,160470,85560
566,5835,160425,85539
567,5853,160350,85508
568,5873,160277,85522
569,5892,160254,85545
570,5911,160285,85553
571,5930,160423,85580
572,5949,160542,85589
573,5969,160594,85585
574,5988,160615,85577
575,6007,160584,85568
576,6026,160549,85615
577,6045,160503,85612
578,6064,160542,85612
579,6083,160618,85621
580,6103,160694,85615
581,6122,160716,85620
582,6141,160713,85619
583,6160,160724,85665
584,6179,160783,85685
585,6198,160895,85698
586,6217,160949,85698
587,6237,161067,85685
588,6256,161146,85709
589,6275,161198,85723
590,6294,161265,85807
591,6313,161362,85809
592,6332,161425,85813
593,6351,161465,85794
594,6371,161545,85792
595,6390,161570,85787
596,6409,161606,85795
597,6428,161580,85840
598,6447,161527,85827
599,6466,161408,85764
600,6485,161152,85684
601,6505,160953,85636
602,6524,160730,85584
603,6543,160593,85575
604,6561,160501,85603
605,6581,160483,85595
606,6600,160468,85580
607,6619,160440,85557
608,6639,160434,85516
609,6658,160383,85508
610,6677,160362,85531
611,6696,160459,85595
612,6715,160579,85633
613,6734,160723,85654
614,6753,160748,85619
615,6773,160733,85601
616,6792,160719,85597
617,6811,160754,85608
618,6830,160719,85628
619,6849,160656,85623
620,6868,160690,85624
621,6887,160748,85635
622,6907,160911,85640
623,6926,160982,85652
624,6945,161001,85658
625,6964,160986,85698
626,6983,160987,85704
627,7002,161078,85718
628,7021,161224,85736
629,7041,161389,85753
630,7060,161471,85759
631,7079,161496,85769
632,7098,161508,85822
633,7117,161546,85826
634,7136,161590,85839
635,7155,161702,85820
636,7175,161846,85834
637,7194,161946,85853
638,7213,161911,85840
639,7232,161757,85833
640,7251,161528,85791
641,7270,161319,85737
642,7289,161143,85689
643,7309,161032,85641
644,7328,160895,85609
645,7347,160799,85604
646,7366,160764,85636
647,7385,160704,85630
648,7404,160703,85616
649,7423,160672,85582
650,7443,160682,85575
651,7462,160687,85576
652,7481,160760,85604
653,7500,160839,85668
654,7519,160915,85684
655,7538,160970,85681
656,7557,160952,85662
657,7577,161000,85643
658,7596,160955,85633
659,7614,160956,85653
660,7634,160966,85683
661,7653,160985,85695
662,7672,161039,85716
663,7691,161134,85710
664,7711,161235,85708
665,7730,161288,85711
666,7749,161309,85730
667,7768,161370,85771
668,7787,161434,85793
669,7806,161520,85813
670,7825,161617,85800
671,7844,161729,85822
672,7864,161819,85823
673,7883,161859,85846
674,7902,161867,85875
675,7921,161863,85870
676,7940,161830,85870
677,7959,161763,85808
678,7978,161648,85766
679,7998,161437,85691
680,8017,161211,85677
681,8036,161042,85669
682,8055,160883,85654
683,8074,160841,85641
684,8093,160794,85598
685,8113,160797,85591
686,8132,160716,85571
687,8151,160699,85549
688,8170,160643,85584
689,8189,160708,85627
690,8208,160800,85638
691,8227,160874,85621
692,8247,160953,85625
693,8266,160977,85630
694,8285,161029,85651
695,8304,161083,85705
696,8323,161088,85715
697,8342,161100,85697
698,8361,161123,85668
699,8381,161213,85688
700,8400,161287,85690
701,8419,161377,85734
702,8438,161414,85767
703,8457,161448,85781
704,8476,161466,85782
705,8495,161546,85773
706,8514,161664,85782
707,8534,161716,85780
708,8553,161772,85812
709,8572,161800,85848
710,8591,161850,85855
711,8610,161887,85871
712,8629,161940,85849
713,8648,162019,85846
714,8668,161981,85821
715,8687,161872,85800
716,8706,161690,85800
717,8725,161457,85736
718,8744,161236,85711
719,8763,161123,85661
720,8782,161118,85656
721,8802,161087,85625
722,8821,161065,85638
723,8840,161020,85645
724,8859,160952,85639
725,8878,160930,85639
726,8897,160954,85636
727,8916,161095,85657
728,8936,161198,85650
729,8955,161284,85672
730,8974,161311,85723
731,8993,161313,85722
732,9012,161334,85736
733,9031,161374,85717
734,9050,161477,85731
735,9070,161496,85709
736,9089,161525,85731
737,9108,161559,85758
738,9127,161592,85794
739,9146,161641,85796
740,9165,161731,85802
741,9184,161850,85801
742,9204,161905,85796
743,9223,161995,85832
744,9242,162038,85847
745,9261,162108,85879
746,9280,162094,85886
747,9299,162159,85879
748,9318,162248,85869
749,9338,162311,85877
750,9357,162396,85906
751,9376,162424,85925
752,9395,162463,85969
753,9414,162485,85974
754,9433,162494,85944
755,9452,162451,85900
756,9472,162325,85850
757,9491,162167,85830
758,9510,161996,85826
759,9529,161834,85823
760,9548,161766,85792
761,9567,161743,85782
762,9586,161708,85762
763,9606,161709,85720
764,9625,161664,85725
765,9644,161631,85746
766,9663,161659,85784
767,9682,161712,85793
768,9701,161830,85819
769,9720,161876,85783
770,9740,161905,85760
771,9759,161882,85780
772,9778,161862,85782
773,9797,161882,85828
774,9816,161911,85823
775,9835,161945,85813
776,9854,161950,85803
777,9874,162001,85800
778,9893,162058,85817
779,9912,162132,85852
780,9931,162170,85876
781,9950,162187,85880
782,9969,162248,85894
783,9988,162347,85881
784,10008,162468,85886
785,10027,162499,85896
786,10046,162527,85903
787,10065,162535,85946
788,10084,162584,85963
789,10103,162674,85969
790,10122,162718,85955
791,10142,162773,85961
792,10161,162783,85948
793,10180,162811,85982
794,10199,162750,85964
795,10218,162611,85948
796,10237,162406,85892
797,10256,162230,85846
798,10276,162100,85793
799,10295,161979,85751
800,10314,161834,85742
801,10333,161716,85751
802,10352,161679,85755
803,10371,161647,85760
804,10390,161686,85740
805,10409,161726,85719
806,10429,161699,85684
807,10448,161707,85720
808,10467,161745,85782
809,10486,161801,85796
810,10505,161803,85783
811,10524,161836,85764
812,10543,161829,85733
813,10563,161797,85711
814,10582,161808,85748
815,10601,161816,85778
816,10620,161850,85793
817,10639,161861,85787
818,10658,161917,85776
819,10677,161994,85774
820,10697,162048,85767
821,10716,162095,85802
822,10735,162133,85813
823,10754,162178,85856
824,10773,162223,85859
825,10792,162260,85847
826,10811,162313,85856
827,10831,162336,85833
828,10850,162380,85868
829,10869,162434,85881
830,10888,162468,85920
831,10907,162511,85921
832,10926,162587,85920
833,10945,162619,85905
834,10965,162544,85852
835,10984,162333,85821
836,11003,162065,85771
837,11022,161820,85772
838,11041,161641,85731
839,11060,161588,85704
840,11079,161511,85685
841,11099,161460,85653
842,11118,161377,85650
843,11137,161323,85656
844,11156,161316,85677
845,11175,161292,85681
846,11194,161316,85678
847,11213,161350,85646
848,11233,161412,85640
849,11252,161399,85647
850,11271,161344,85648
851,11290,161292,85676
852,11309,161237,85650
853,11328,161229,85638
854,11347,161247,85631
855,11367,161296,85623
856,11386,161273,85605
857,11405,161225,85603
858,11424,161227,85668
859,11443,161274,85670
860,11462,161349,85682
861,11481,161414,85676
862,11501,161484,85680
863,11520,161503,85676
864,11539,161531,85682
865,11558,161566,85719
866,11577,161572,85721
867,11596,161612,85711
868,11615,161656,85701
869,11635,161723,85730
870,11654,161746,85701
871,11673,161808,85731
872,11692,161846,85793
873,11711,161930,85807
874,11730,161963,85816
875,11749,161937,85762
876,11769,161784,85708
877,11788,161508,85631
878,11807,161267,85591
879,11826,160991,85568
880,11845,160833,85554
881,11864,160768,85549
882,11883,160701,85515
883,11903,160699,85472
884,11922,160635,85444
885,11941,160584,85473
886,11960,160559,85482
887,11979,160553,85506
888,11998,160609,85524
889,12017,160704,85518
890,12036,160815,85512
891,12056,160852,85505
892,12075,160869,85533
893,12094,160854,85547
894,12113,160808,85542
895,12132,160785,85537
896,12151,160807,85535
897,12170,160897,85542
898,12190,160954,85524
899,12209,161054,85563
900,12228,161071,85600
901,12247,161095,85614
902,12266,161125,85626
903,12285,161174,85603
904,12304,161300,85635
905,12324,161379,85626
906,12343,161394,85634
907,12362,161380,85630
908,12381,161368,85677
909,12400,161331,85660
910,12419,161369,85644
911,12438,161414,85632
912,12458,161478,85638
913,12477,161532,85669
914,12496,161582,85696
915,12515,161611,85715
916,12534,161519,85674
917,12553,161367,85626
918,12572,161155,85537
919,12592,160898,85485
920,12611,160688,85456
921,12630,160517,85442
922,12649,160356,85457
923,12668,160288,85413
924,12687,160263,85413
925,12706,160284,85399
926,12726,160302,85375
927,12745,160269,85381
928,12764,160259,85384
929,12783,160255,85413
930,12802,160259,85408
931,12821,160313,85427
932,12840,160391,85421
933,12860,160453,85402
934,12879,160455,85405
935,12898,160416,85412
936,12917,160394,85451
937,12936,160347,85421
938,12955,160397,85458
939,12974,160489,85445
940,12994,160575,85441
941,13013,160587,85440
942,13032,160624,85457
943,13051,160624,85507
944,13070,160689,85523
945,13089,160804,85543
946,13108,160875,85527
947,13128,160969,85522
948,13147,160997,85530
949,13166,161021,85541
950,13185,161049,85600
951,13204,161107,85607
952,13223,161174,85606
953,13242,161221,85610
954,13262,161287,85586
955,13281,161286,85578
956,13300,161248,85575
957,13319,161081,85566
958,13338,160839,85517
959,13357,160558,85470
960,13376,160305,85375
961,13395,160118,85319
962,13415,159989,85286
963,13434,159907,85298
964,13453,159853,85308
965,13472,159811,85321
966,13491,159738,85293
967,13510,159740,85275
968,13529,159795,85273
969,13549,159902,85287
970,13568,159990,85330
971,13587,160034,85358
972,13606,160045,85358
973,13625,160024,85369
974,13644,160030,85348
975,13663,160065,85328
976,13683,160094,85318
977,13702,160105,85342
978,13721,160068,85340
979,13740,160066,85372
980,13759,160090,85382
981,13778,160179,85368
982,13797,160234,85385
983,13817,160328,85386
984,13836,160381,85395
985,13855,160456,85437
986,13874,160534,85485
987,13893,160569,85492
988,13912,160629,85472
989,13931,160702,85467
990,13951,160799,85497
991,13970,160855,85506
992,13989,160902,85520
993,14008,160943,85572
994,14027,160935,85555
995,14046,161028,85563
996,14065,161052,85554
997,14085,160994,85485
998,14104,160804,85442
999,14123,160505,85411
1000,14142,160203,85386
1001,14161,159942,85318
1002,14180,159812,85308
1003,14199,159761,85282
1004,14219,159748,85248
1005,14238,159716,85250
1006,14257,159651,85249
1007,14276,159588,85267
1008,14295,159579,85270
1009,14314,159661,85297
1010,14333,159755,85311
1011,14353,159871,85278
1012,14372,159897,85306
1013,14391,159898,85321
1014,14410,159895,85347
1015,14429,159875,85345
1016,14448,159864,85339
1017,14467,159855,85300
1018,14487,159897,85295
1019,14506,159941,85309
1020,14525,160003,85340
1021,14544,160063,85387
1022,14563,160081,85410
1023,14582,160188,85429
1024,14601,160268,85409
1025,14620,160393,85425
1026,14640,160433,85412
1027,14659,160488,85452
1028,14678,160558,85482
1029,14697,160646,85506
1030,14716,160703,85520
1031,14735,160753,85501
1032,14754,160837,85515
1033,14774,160931,85525
1034,14793,161037,85557
1035,14812,161070,85575
1036,14831,161116,85605
1037,14850,161140,85587
1038,14869,161019,85543
1039,14888,160864,85474
1040,14908,160603,85408
1041,14927,160347,85369
1042,14946,160127,85362
1043,14965,159959,85354
1044,14984,159835,85336
1045,15003,159778,85308
1046,15022,159763,85300
1047,15042,159772,85270
1048,15061,159771,85297
1049,15080,159791,85310
1050,15099,159843,85353
1051,15118,159897,85359
1052,15137,159957,85359
1053,15156,159998,85343
1054,15176,160027,85323
1055,15195,159994,85305
1056,15214,159904,85324
1057,15233,159855,85349
1058,15252,159787,85344
1059,15271,159826,85329
1060,15290,159903,85337
1061,15310,160016,85353
1062,15329,160040,85352
1063,15348,160077,85359
1064,15367,160102,85408
1065,15386,160098,85404
1066,15405,160160,85423
1067,15424,160218,85409
1068,15444,160312,85405
1069,15463,160322,85415
1070,15482,160356,85443
1071,15501,160395,85489
1072,15520,160389,85463
1073,15539,160459,85488
1074,15558,160511,85503
1075,15578,160614,85488
1076,15597,160648,85485
1077,15616,160552,85459
1078,15635,160327,85441
1079,15654,160092,85383
1080,15673,159823,85358
1081,15692,159626,85294
1082,15712,159523,85264
1083,15731,159406,85231
1084,15750,159362,85242
1085,15769,159334,85276
1086,15788,159363,85306
1087,15807,159412,85313
1088,15826,159486,85294
1089,15846,159566,85291
1090,15865,159616,85313
1091,15884,159708,85334
1092,15903,159768,85397
1093,15922,159779,85378
1094,15941,159746,85371
1095,15960,159711,85344
1096,15980,159760,85333
1097,15999,159815,85350
1098,16018,159854,85368
1099,16037,159818,85397
1100,16056,159757,85352
1101,16075,159742,85384
1102,16094,159810,85370
1103,16113,159920,85368
1104,16133,159976,85366
1105,16152,160036,85385
1106,16171,160056,85426
1107,16190,160099,85437
1108,16209,160151,85451
1109,16228,160220,85441
1110,16247,160312,85440
1111,16267,160367,85444
1112,16286,160395,85449
1113,16305,160422,85504
1114,16324,160464,85511
1115,16343,160526,85531
1116,16362,160532,85493
1117,16381,160434,85448
1118,16401,160173,85349
1119,16420,159859,85304
1120,16439,159598,85291
1121,16458,159435,85279
1122,16477,159317,85267
1123,16496,159248,85232
1124,16515,159248,85204
1125,16535,159195,85187
1126,16554,159175,85205
1127,16573,159150,85209
1128,16592,159142,85251
1129,16611,159124,85233
1130,16630,159186,85237
1131,16649,159250,85239
1132,16669,159339,85227
1133,16688,159385,85244
1134,16707,159387,85268
1135,16726,159359,85304
1136,16745,159375,85281
1137,16764,159392,85276
1138,16783,159430,85258
1139,16803,159413,85229
1140,16822,159395,85227
1141,16841,159406,85276
1142,16860,159489,85319
1143,16879,159565,85348
1144,16898,159661,85345
1145,16917,159740,85324
1146,16937,159772,85313
1147,16956,159814,85339
1148,16975,159804,85361
1149,16994,159844,85384
1150,17013,159855,85384
1151,17032,159884,85376
1152,17051,159944,85379
1153,17071,160023,85363
1154,17090,160040,85365
1155,17109,160085,85398
1156,17128,160123,85423
1157,17147,160100,85414
1158,17166,159985,85383
1159,17185,159734,85301
1160,17205,159488,85242
1161,17224,159245,85181
1162,17243,159060,85171
1163,17262,158928,85187
1164,17281,158786,85154
1165,17300,158710,85155
1166,17319,158675,85116
1167,17339,158716,85102
1168,17358,158681,85093
1169,17377,158663,85104
1170,17396,158697,85157
1171,17415,158746,85188
1172,17434,158780,85173
1173,17453,158856,85162
1174,17472,158930,85166
1175,17492,158961,85149
1176,17511,158958,85170
1177,17530,158930,85184
1178,17549,158922,85214
1179,17568,158971,85210
1180,17587,159069,85224
1181,17606,159172,85236
1182,17626,159271,85242
1183,17645,159366,85262
1184,17664,159438,85300
1185,17683,159492,85344
1186,17702,159541,85367
1187,17721,159703,85360
1188,17740,159798,85370
1189,17760,159877,85363
1190,17779,159950,85378
1191,17798,159972,85389
1192,17817,160025,85431
1193,17836,160074,85460
1194,17855,160186,85463
1195,17874,160317,85484
1196,17894,160440,85476
1197,17913,160499,85490
1198,17932,160548,85506
1199,17951,160511,85514
1200,17970,160391,85492
1201,17989,160207,85452
1202,18008,160035,85378
1203,18028,159877,85334
1204,18047,159663,85293
1205,18066,159539,85305
1206,18085,159501,85329
1207,18104,159425,85316
1208,18123,159357,85303
1209,18142,159376,85284
1210,18161,159411,85280
1211,18181,159524,85305
1212,18200,159688,85360
1213,18219,159800,85399
1214,18238,159880,85431
1215,18257,159859,85426
1216,18276,159885,85390
1217,18295,159898,85388
1218,18315,159959,85395
1219,18334,160009,85424
1220,18353,160035,85440
1221,18372,160011,85466
1222,18391,160003,85450
1223,18410,160095,85481
1224,18429,160195,85466
1225,18449,160293,85472
1226,18468,160345,85493
1227,18487,160374,85507
1228,18506,160419,85552
1229,18525,160492,85578
1230,18544,160548,85574
1231,18563,160577,85556
1232,18583,160637,85543
1233,18602,160682,85562
1234,18621,160731,85580
1235,18640,160745,85624
1236,18659,160755,85630
1237,18678,160823,85650
1238,18697,160875,85638
1239,18717,161017,85636
1240,18736,161040,85638
1241,18755,161019,85631
1242,18774,160830,85617
1243,18793,160556,85554
1244,18812,160228,85508
1245,18831,159972,85435
1246,18850,159801,85377
1247,18870,159613,85333
1248,18889,159449,85310
1249,18908,159304,85337
1250,18927,159226,85318
1251,18946,159196,85312
1252,18965,159183,85282
1253,18984,159181,85283
1254,19004,159145,85244
1255,19023,159155,85278
1256,19042,159214,85318
1257,19061,159290,85346
1258,19080,159309,85346
1259,19099,159338,85340
1260,19118,159409,85326
1261,19138,159395,85319
1262,19157,159403,85321
1263,19176,159390,85367
1264,19195,159428,85399
1265,19214,159534,85410
1266,19233,159607,85406
1267,19252,159704,85400
1268,19272,159768,85390
1269,19291,159814,85417
1270,19310,159874,85446
1271,19329,159955,85513
1272,19348,160043,85534
1273,19367,160160,85517
1274,19386,160173,85511
1275,19406,160189,85490
1276,19425,160217,85496
1277,19444,160212,85518
1278,19463,160296,85577
1279,19482,160377,85601
1280,19501,160484,85607
1281,19520,160515,85599
1282,19540,160553,85580
1283,19559,160517,85547
1284,19578,160406,85547
1285,19597,160184,85540
1286,19616,159897,85469
1287,19635,159652,85411
1288,19654,159418,85352
1289,19674,159277,85330
1290,19693,159184,85306
1291,19712,159147,85313
1292,19731,159127,85345
1293,19750,159056,85338
1294,19769,158994,85310
1295,19788,159003,85305
1296,19807,159123,85304
1297,19827,159189,85319
1298,19846,159251,85357
1299,19865,159267,85380
1300,19884,159282,85395
1301,19903,159226,85375
1302,19922,159247,85362
1303,19941,159319,85363
1304,19961,159339,85364
1305,19980,159314,85360
1306,19999,159284,85371
1307,20018,159286,85407
1308,20037,159346,85431
1309,20056,159480,85453
1310,20075,159609,85445
1311,20095,159633,85438
1312,20114,159650,85435
1313,20133,159666,85486
1314,20152,159741,85503
1315,20171,159850,85543
1316,20190,159965,85547
1317,20209,160011,85551
1318,20229,160024,85502
1319,20248,159995,85503
1320,20267,160015,85556
1321,20286,160083,85586
1322,20305,160099,85597
1323,20324,160181,85606
1324,20343,160229,85596
1325,20363,160298,85596
1326,20382,160193,85543
1327,20401,159990,85487
1328,20420,159674,85449
1329,20439,159360,85400
1330,20458,159091,85371
1331,20477,158937,85295
1332,20496,158843,85279
1333,20516,158786,85266
1334,20535,158782,85269
1335,20554,158757,85293
1336,20573,158730,85303
1337,20592,158698,85303
1338,20611,158717,85293
1339,20630,158818,85301
1340,20650,158907,85304
1341,20669,158978,85334
1342,20688,158993,85335
1343,20707,159007,85380
1344,20726,158963,85359
1345,20745,158958,85338
1346,20764,158976,85332
1347,20784,158962,85333
1348,20803,159000,85346
1349,20822,159070,85371
1350,20841,159154,85442
1351,20860,159257,85448
1352,20879,159394,85478
1353,20898,159519,85481
1354,20918,159669,85483
1355,20937,159706,85495
1356,20956,159789,85533
1357,20975,159888,85587
1358,20994,159937,85597
1359,21013,159975,85589
1360,21032,159982,85584
1361,21052,160049,85569
1362,21071,160083,85569
1363,21090,160141,85590
1364,21109,160134,85623
1365,21128,160141,85639
1366,21147,160123,85635
1367,21166,160198,85598
1368,21186,160193,85595
1369,21205,160043,85555
1370,21224,159787,85479
1371,21243,159438,85430
1372,21262,159056,85382
1373,21281,158846,85362
1374,21300,158817,85353
1375,21319,158909,85369
1376,21339,158922,85350
1377,21358,158839,85345
1378,21377,158743,85363
1379,21396,158732,85367
1380,21415,158785,85375
1381,21434,158825,85358
1382,21453,158881,85344
1383,21473,158889,85330
1384,21492,158931,85367
1385,21511,158915,85378
1386,21530,158880,85393
1387,21549,158879,85396
1388,21568,158904,85389
1389,21587,158971,85387
1390,21607,159037,85374
1391,21626,159140,85439
1392,21645,159271,85487
1393,21664,159387,85538
1394,21683,159470,85542
1395,21702,159544,85538
1396,21721,159661,85547
1397,21741,159798,85567
1398,21760,159944,85628
1399,21779,160040,85652
1400,21798,160062,85671
1401,21817,160047,85650
1402,21836,160061,85653
1403,21855,160117,85636
1404,21875,160231,85643
1405,21894,160295,85669
1406,21913,160303,85678
1407,21932,160332,85709
1408,21951,160321,85705
1409,21970,160280,85671
1410,21989,160112,85617
1411,22009,159852,85528
1412,22028,159531,85459
1413,22047,159294,85437
1414,22066,159126,85444
1415,22085,158972,85410
1416,22104,158954,85411
1417,22123,158914,85394
1418,22143,158930,85373
1419,22162,158921,85364
1420,22181,158983,85413
1421,22200,159058,85462
1422,22219,159121,85471
1423,22238,159175,85467
1424,22257,159216,85446
1425,22277,159308,85462
1426,22296,159303,85459
1427,22315,159282,85465
1428,22334,159274,85497
1429,22353,159267,85487
1430,22372,159292,85503
1431,22391,159352,85495
1432,22411,159478,85510
1433,22430,159561,85506
1434,22449,159623,85529
1435,22468,159644,85576
1436,22487,159714,85618
1437,22506,159826,85634
1438,22525,159965,85645
1439,22544,160091,85648
1440,22564,160152,85625
1441,22583,160140,85636
1442,22602,160174,85666
1443,22621,160153,85689
1444,22640,160192,85683
1445,22659,160251,85689
1446,22678,160315,85679
1447,22698,160335,85659
1448,22717,160272,85638
1449,22736,160016,85584
1450,22755,159671,85541
1451,22774,159378,85487
1452,22793,159137,85431
1453,22812,158963,85375
1454,22832,158856,85353
1455,22851,158766,85355
1456,22870,158698,85354
1457,22889,158695,85381
1458,22908,158709,85392
1459,22927,158781,85377
1460,22946,158851,85369
1461,22966,158912,85363
1462,22985,158950,85384
1463,23004,159037,85420
1464,23023,159108,85475
1465,23042,159122,85449
1466,23061,159151,85453
1467,23080,159167,85435
1468,23100,159198,85427
1469,23119,159194,85437
1470,23138,159182,85446
1471,23157,159177,85490
1472,23176,159224,85493
1473,23195,159361,85513
1474,23214,159482,85529
1475,23234,159588,85525
1476,23253,159659,85525
1477,23272,159698,85542
1478,23291,159730,85579
1479,23310,159783,85592
1480,23329,159854,85597
1481,23348,159920,85600
1482,23368,160020,85600
1483,23387,160056,85601
1484,23406,160087,85615
1485,23425,160136,85662
1486,23444,160207,85679
1487,23463,160313,85715
1488,23482,160373,85690
1489,23502,160375,85676
1490,23521,160194,85586
1491,23540,159848,85543
1492,23559,159528,85491
1493,23578,159245,85458
1494,23597,159074,85434
1495,23616,158987,85403
1496,23635,158928,85374
1497,23655,158862,85326
1498,23674,158848,85362
1499,23693,158826,85379
1500,23712,158817,85372
1501,23731,158817,85381
1502,23750,158894,85383
1503,23769,159007,85392
1504,23789,159091,85401
1505,23808,159156,85421
1506,23827,159144,85433
1507,23846,159136,85450
1508,23865,159128,85454
1509,23884,159141,85429
1510,23903,159193,85424
1511,23923,159215,85408
1512,23942,159274,85456
1513,23961,159355,85484
1514,23980,159410,85537
1515,23999,159500,85549
1516,24018,159623,85537
1517,24037,159755,85551
1518,24057,159838,85544
1519,24076,159922,85592
1520,24095,160006,85621
1521,24114,160089,85659
1522,24133,160115,85650
1523,24152,160170,85642
1524,24171,160218,85632
1525,24191,160289,85641
1526,24210,160378,85656
1527,24229,160407,85689
1528,24248,160492,85735
1529,24267,160523,85731
1530,24286,160528,85708
1531,24305,160424,85655
1532,24325,160217,85577
1533,24344,159955,85532
1534,24363,159736,85503
1535,24382,159549,85513
1536,24401,159392,85463
1537,24420,159259,85417
1538,24439,159166,85392
1539,24459,159183,85400
1540,24478,159221,85415
1541,24497,159255,85430
1542,24516,159272,85456
1543,24535,159233,85456
1544,24554,159288,85478
1545,24573,159371,85482
1546,24593,159499,85482
1547,24612,159517,85465
1548,24631,159518,85471
1549,24650,159487,85518
1550,24669,159461,85512
1551,24688,159481,85517
1552,24707,159539,85514
1553,24726,159647,85503
1554,24746,159704,85515
1555,24765,159724,85517
1556,24784,159728,85550
1557,24803,159791,85593
1558,24822,159901,85623
1559,24841,159992,85619
1560,24860,160112,85612
1561,24880,160161,85603
1562,24899,160199,85616
1563,24918,160196,85640
1564,24937,160217,85672
1565,24956,160233,85668
1566,24975,160279,85665
1567,24994,160354,85659
1568,25014,160433,85682
1569,25033,160505,85687
1570,25052,160527,85695
1571,25071,160507,85715
1572,25090,160493,85707
1573,25109,160434,85683
1574,25128,160256,85609
1575,25148,160013,85537
1576,25167,159780,85498
1577,25186,159597,85468
1578,25205,159526,85495
1579,25224,159393,85485
1580,25243,159297,85430
1581,25262,159277,85413
1582,25282,159318,85416
1583,25301,159322,85398
1584,25320,159312,85400
1585,25339,159315,85467
1586,25358,159373,85481
1587,25377,159473,85490
1588,25396,159475,85448
1589,25416,159526,85453
1590,25435,159534,85447
1591,25454,159598,85476
1592,25473,159541,85498
1593,25492,159509,85490
1594,25511,159507,85514
1595,25530,159633,85503
1596,25549,159726,85501
1597,25569,159775,85501
1598,25588,159865,85545
1599,25607,159901,85586
1600,25626,159961,85597
1601,25645,160014,85598
1602,25664,160109,85624
1603,25683,160254,85630
1604,25703,160299,85605
1605,25722,160348,85635
1606,25741,160403,85684
1607,25760,160456,85710
1608,25779,160487,85715
1609,25798,160542,85693
1610,25817,160633,85684
1611,25837,160704,85701
1612,25856,160766,85713
1613,25875,160818,85752
1614,25894,160824,85789
1615,25913,160809,85748
1616,25932,160731,85726
1617,25951,160618,85678
1618,25971,160408,85610
1619,25990,160177,85558
1620,26009,159942,85531
1621,26028,159782,85533
1622,26047,159684,85504
1623,26066,159694,85501
1624,26085,159708,85487
1625,26105,159721,85463
1626,26124,159684,85457
1627,26143,159667,85475
1628,26162,159673,85510
1629,26181,159743,85531
1630,26200,159816,85548
1631,26219,159920,85531
1632,26239,159965,85531
1633,26258,159965,85534
1634,26277,159967,85524
1635,26296,159942,85568
1636,26315,159941,85576
1637,26334,159976,85569
1638,26353,160013,85565
1639,26373,160110,85560
1640,26392,160149,85567
1641,26411,160206,85597
1642,26430,160290,85644
1643,26449,160377,85674
1644,26468,160470,85693
1645,26487,160560,85677
1646,26507,160631,85682
1647,26526,160689,85695
1648,26545,160764,85721
1649,26564,160811,85755
1650,26583,160847,85777
1651,26602,160873,85786
1652,26621,160907,85740
1653,26641,160971,85746
1654,26660,161019,85760
1655,26679,161106,85782
1656,26698,161128,85823
1657,26717,161155,85830
1658,26736,161167,85849
1659,26755,161159,85795
1660,26774,161054,85729
1661,26794,160811,85669
1662,26813,160617,85643
1663,26832,160420,85645
1664,26851,160303,85628
1665,26870,160202,85605
1666,26889,160142,85598
1667,26908,160155,85576
1668,26928,160145,85557
1669,26947,160124,85571
1670,26966,160168,85604
1671,26985,160224,85647
1672,27004,160277,85640
1673,27023,160371,85664
1674,27042,160462,85657
1675,27062,160539,85648
1676,27081,160535,85657
1677,27100,160523,85691
1678,27119,160512,85708
1679,27138,160529,85703
1680,27157,160584,85727
1681,27176,160627,85687
1682,27196,160650,85679
1683,27215,160675,85711
1684,27234,160742,85729
1685,27253,160822,85778
1686,27272,160860,85790
1687,27291,160887,85781
1688,27310,160847,85744
1689,27330,160928,85756
1690,27349,161014,85772
1691,27368,161057,85789
1692,27387,161111,85834
1693,27406,161128,85819
1694,27425,161117,85804
1695,27444,161126,85798
1696,27464,161182,85796
1697,27483,161275,85824
1698,27502,161378,85855
1699,27521,161422,85893
1700,27540,161416,85897
1701,27559,161398,85865
1702,27578,161302,85823
1703,27598,161177,85771
1704,27617,160970,85742
1705,27636,160767,85696
1706,27655,160577,85687
1707,27674,160446,85681
1708,27693,160363,85667
1709,27712,160348,85627
1710,27731,160326,85611
1711,27751,160247,85575
1712,27770,160245,85592
1713,27789,160238,85634
1714,27808,160294,85657
1715,27827,160339,85662
1716,27846,160401,85664
1717,27865,160491,85663
1718,27885,160488,85638
1719,27904,160474,85648
1720,27923,160401,85650
1721,27942,160384,85673
1722,27961,160348,85671
1723,27980,160346,85656
1724,27999,160426,85646
1725,28019,160499,85648
1726,28038,160501,85671
1727,28057,160508,85684
1728,28076,160566,85740
1729,28095,160624,85738
1730,28114,160713,85750
1731,28133,160759,85741
1732,28153,160837,85725
1733,28172,160887,85744
1734,28191,160893,85759
1735,28210,160913,85793
1736,28229,160928,85811
1737,28248,161004,85800
1738,28267,161084,85822
1739,28287,161194,85807
1740,28306,161234,85829
1741,28325,161267,85847
1742,28344,161265,85878
1743,28363,161231,85859
1744,28382,161150,85820
1745,28401,160894,85734
1746,28421,160672,85665
1747,28440,160409,85609
1748,28459,160255,85601
1749,28478,160165,85630
1750,28497,160073,85625
1751,28516,160004,85594
1752,28535,159953,85570
1753,28555,159976,85556
1754,28574,159989,85550
1755,28593,160046,85579
1756,28612,160043,85601
1757,28631,160063,85639
1758,28650,160078,85625
1759,28669,160107,85619
1760,28689,160207,85602
1761,28708,160207,85598
1762,28727,160176,85613
1763,28746,160149,85664
1764,28765,160164,85654
1765,28784,160180,85660
1766,28803,160215,85631
1767,28822,160289,85650
1768,28842,160344,85646
1769,28861,160398,85670
1770,28880,160446,85698
1771,28899,160497,85741
1772,28918,160569,85758
1773,28937,160631,85746
1774,28956,160733,85733
1775,28976,160802,85742
1776,28995,160849,85765
1777,29014,160874,85784
1778,29033,160888,85817
1779,29052,160930,85830
1780,29071,160999,85822
1781,29090,161098,85832
1782,29110,161203,85836
1783,29129,161238,85844
1784,29148,161169,85837
1785,29167,161059,85834
1786,29186,160811,85765
1787,29205,160613,85725
1788,29224,160441,85670
1789,29244,160294,85614
1790,29263,160169,85618
1791,29282,160043,85600
1792,29301,159984,85625
1793,29320,159950,85622
1794,29339,159962,85611
1795,29358,159998,85598
1796,29378,160067,85601
1797,29397,160189,85648
1798,29416,160305,85677
1799,29435,160400,85737
1800,29454,160424,85724
1801,29473,160422,85714
1802,29492,160405,85708
1803,29512,160451,85685
1804,29531,160458,85678
1805,29550,160429,85697
1806,29569,160372,85719
1807,29588,160341,85714
1808,29607,160407,85719
1809,29626,160488,85734
1810,29646,160560,85712
1811,29665,160577,85718
1812,29684,160587,85716
1813,29703,160584,85758
1814,29722,160606,85774
1815,29741,160736,85797
1816,29760,160816,85805
1817,29780,160924,85786
1818,29799,160935,85789
1819,29818,160942,85800
1820,29837,160931,85830
1821,29856,160955,85842
1822,29875,161007,85880
1823,29894,161105,85855
1824,29913,161189,85872
1825,29933,161247,85847
1826,29952,161243,85857
1827,29971,161096,85842
1828,29990,160876,85790
