sample_index,timestamp_ms,ir,red
0,1,162820,87422
1,1,162922,87415
2,1,163002,87391
3,2,163027,87415
4,2,163017,87421
5,2,163007,87465
6,2,163025,87457
7,3,163004,87412
8,3,162828,87361
9,3,162558,87285
10,3,162248,87228
11,3,162026,87194
12,4,161860,87200
13,4,161762,87190
14,4,161691,87166
15,4,161659,87131
16,4,161670,87117
17,4,161647,87102
18,4,161629,87111
19,4,161675,87163
20,5,161708,87184
21,5,161743,87182
22,5,161801,87160
23,5,161860,87151
24,5,161830,87131
25,5,161841,87136
26,5,161829,87155
27,6,161845,87171
28,6,161820,87169
29,6,161860,87165
30,7,161913,87155
31,7,161990,87143
32,7,162054,87177
33,7,162144,87215
34,7,162225,87258
35,7,162280,87248
36,8,162312,87258
37,8,162368,87242
38,8,162444,87243
39,8,162515,87256
40,8,162555,87282
41,8,162596,87319
42,8,162621,87305
43,9,162676,87329
44,9,162708,87311
45,9,162732,87291
46,9,162624,87239
47,9,162423,87217
48,9,162137,87188
49,9,161844,87134
50,9,161650,87109
51,9,161517,87067
52,9,161483,87030
53,9,161441,87026
54,10,161385,87025
55,10,161354,87019
56,10,161326,87040
57,10,161326,87043
58,10,161367,87031
59,10,161429,87017
60,10,161480,87018
61,10,161490,87034
62,10,161523,87042
63,10,161524,87088
64,11,161546,87085
65,11,161603,87065
66,11,161626,87072
67,11,161670,87060
68,11,161736,87067
69,11,161774,87083
70,11,161836,87132
71,11,161915,87142
72,11,161979,87137
73,11,162071,87146
74,11,162181,87140
75,11,162217,87145
76,12,162306,87164
77,12,162340,87214
78,12,162409,87230
79,12,162411,87242
80,12,162472,87224
81,12,162546,87229
82,12,162626,87227
83,12,162712,87237
84,12,162746,87262
85,12,162726,87268
86,13,162596,87224
87,13,162412,87175
88,13,162211,87122
89,13,162020,87064
90,13,161867,87044
91,13,161692,87011
92,13,161568,87041
93,13,161476,87020
94,13,161496,87012
95,13,161544,86990
96,14,161576,86987
97,14,161585,86988
98,14,161666,87015
99,14,161708,87063
100,14,161773,87094
101,14,161831,87102
102,14,161905,87069
103,14,161976,87047
104,14,161962,87037
105,14,161963,87067
106,14,161926,87070
107,14,161950,87097
108,14,162009,87107
109,15,162055,87107
110,15,162150,87090
111,15,162265,87096
112,15,162307,87121
113,15,162334,87143
114,15,162349,87166
115,15,162389,87168
116,15,162488,87197
117,15,162573,87178
118,15,162661,87185
119,15,162699,87180
120,15,162732,87204
121,15,162741,87254
122,16,162792,87240
123,16,162840,87257
124,16,162937,87238
125,16,163063,87243
126,16,163109,87249
127,16,163093,87249
128,16,162976,87240
129,16,162738,87203
130,16,162513,87159
131,16,162330,87084
132,16,162195,87036
133,16,162047,87002
134,16,161951,86990
135,16,161863,87020
136,17,161818,87011
137,17,161825,87016
138,17,161835,86994
139,17,161880,86995
140,17,161941,86991
141,17,161979,87006
142,17,162033,87015
143,17,162039,87058
144,17,162026,87054
145,17,162033,87046
146,17,162046,87010
147,17,162038,87002
148,17,162049,86994
149,18,162074,87020
150,18,162069,87060
151,18,162101,87054
152,18,162177,87067
153,18,162257,87051
154,18,162320,87045
155,18,162392,87076
156,18,162425,87084
157,18,162482,87129
158,18,162520,87140
159,18,162597,87131
160,18,162653,87132
161,18,162736,87123
162,18,162760,87127
163,18,162814,87146
164,19,162864,87192
165,19,162887,87204
166,19,162946,87207
167,19,162989,87191
168,19,163041,87162
169,19,163047,87170
170,19,162947,87150
171,19,162743,87121
172,19,162476,87079
173,19,162189,87027
174,19,161972,86965
175,19,161849,86911
176,19,161744,86883
177,19,161694,86899
178,19,161648,86937
179,20,161588,86913
180,20,161538,86910
181,20,161549,86892
182,20,161646,86898
183,20,161714,86895
184,20,161763,86916
185,20,161774,86957
186,20,161764,86954
187,20,161781,86942
188,20,161759,86924
189,20,161802,86913
190,20,161790,86896
191,20,161824,86922
192,20,161859,86958
193,20,161881,86978
194,21,161909,86977
195,21,161985,86960
196,21,162075,86979
197,21,162128,86957
198,21,162187,86991
199,21,162240,87043
200,21,162295,87058
201,21,162337,87059
202,21,162384,87071
203,21,162484,87065
204,21,162538,87032
205,21,162584,87072
206,21,162622,87106
207,21,162645,87124
208,22,162674,87128
209,22,162723,87108
210,22,162754,87098
211,22,162674,87057
212,22,162465,87024
213,22,162150,86970
214,22,161822,86925
215,22,161544,86885
216,22,161346,86828
217,22,161263,86786
218,22,161178,86760
219,22,161094,86774
220,22,160988,86759
221,22,160939,86785
222,22,160934,86767
223,22,161022,86784
224,23,161146,86792
225,23,161266,86807
226,23,161313,86843
227,23,161296,86842
228,23,161312,86879
229,23,161295,86858
230,23,161359,86867
231,23,161380,86829
232,23,161409,86835
233,23,161443,86839
234,23,161462,86878
235,23,161530,86913
236,23,161583,86915
237,23,161672,86934
238,23,161736,86930
239,23,161831,86913
240,24,161877,86928
241,24,161903,86931
242,24,161936,86987
243,24,161973,86981
244,24,162037,87009
245,24,162106,86992
246,24,162174,86978
247,24,162207,86994
248,24,162249,87003
249,24,162274,87052
250,24,162279,87052
251,24,162358,87053
252,24,162384,87023
253,24,162345,86985
254,24,162135,86935
255,24,161819,86875
256,24,161454,86861
257,25,161154,86792
258,25,160964,86770
259,25,160850,86725
260,25,160800,86698
261,25,160729,86689
262,25,160679,86684
263,32,160646,86725
264,51,160632,86739
265,70,160659,86742
266,89,160735,86730
267,107,160851,86738
268,127,160909,86717
269,147,160948,86755
270,166,160955,86789
271,185,160950,86813
272,204,160966,86795
273,223,160988,86784
274,242,161046,86790
275,262,161103,86784
276,281,161148,86811
277,300,161210,86839
278,319,161251,86865
279,338,161329,86873
280,357,161412,86881
281,376,161552,86894
282,396,161627,86881
283,415,161679,86914
284,434,161736,86945
285,452,161793,86980
286,472,161830,86980
287,491,161932,86980
288,510,161967,86973
289,530,162025,86968
290,549,162057,86963
291,568,162098,86999
292,587,162142,87047
293,606,162203,87049
294,625,162239,87029
295,644,162179,86993
296,664,161986,86949
297,683,161683,86865
298,702,161378,86829
299,721,161103,86812
300,740,160878,86782
301,759,160760,86769
302,778,160742,86736
303,798,160725,86727
304,817,160680,86699
305,836,160663,86707
306,855,160665,86763
307,874,160728,86772
308,893,160801,86794
309,912,160901,86779
310,932,161010,86789
311,951,161049,86791
312,970,161093,86803
313,989,161051,86838
314,1008,161035,86833
315,1027,161032,86838
316,1046,161073,86839
317,1065,161183,86823
318,1085,161226,86824
319,1104,161288,86852
320,1123,161315,86878
321,1142,161370,86919
322,1160,161412,86918
323,1179,161495,86924
324,1199,161617,86931
325,1219,161701,86921
326,1238,161771,86942
327,1257,161808,86974
328,1276,161816,87004
329,1294,161818,86993
330,1314,161903,86991
331,1333,161986,87006
332,1353,162070,86992
333,1372,162116,87010
334,1391,162148,87030
335,1410,162177,87083
336,1429,162187,87063
337,1448,162195,87053
338,1467,162117,87003
339,1487,161891,86940
340,1506,161591,86885
341,1525,161276,86840
342,1544,161042,86835
343,1563,160886,86798
344,1582,160826,86789
345,1601,160830,86761
346,1621,160830,86744
347,1640,160829,86761
348,1659,160837,86787
349,1678,160868,86834
350,1697,160905,86844
351,1716,161011,86854
352,1735,161102,86839
353,1755,161144,86832
354,1774,161189,86840
355,1793,161151,86841
356,1812,161137,86849
357,1831,161093,86844
358,1850,161093,86830
359,1869,161091,86807
360,1889,161151,86810
361,1908,161235,86845
362,1927,161309,86861
363,1946,161346,86904
364,1965,161402,86914
365,1984,161490,86924
366,2003,161600,86927
367,2023,161720,86940
368,2042,161771,86935
369,2061,161854,86963
370,2080,161890,87019
371,2099,161885,87011
372,2118,161945,87037
373,2137,162012,87017
374,2157,162134,87041
375,2176,162196,87042
376,2195,162242,87039
377,2214,162273,87082
378,2233,162277,87082
379,2252,162213,87073
380,2271,162098,87015
381,2290,161903,86948
382,2310,161683,86876
383,2329,161396,86875
384,2348,161185,86857
385,2367,161039,86841
386,2386,160997,86830
387,2405,160990,86825
388,2424,161021,86804
389,2444,161032,86791
390,2463,161039,86815
391,2482,161090,86856
392,2501,161185,86906
393,2520,161242,86916
394,2539,161344,86898
395,2558,161388,86895
396,2578,161403,86869
397,2597,161417,86877
398,2616,161421,86915
399,2635,161408,86952
400,2654,161419,86936
401,2673,161496,86931
402,2692,161579,86930
403,2712,161671,86926
404,2731,161745,86959
405,2750,161803,86964
406,2769,161877,87020
407,2788,161942,87033
408,2807,161989,87018
409,2826,162066,87046
410,2846,162166,87024
411,2865,162189,87034
412,2884,162248,87061
413,2903,162256,87097
414,2922,162297,87088
415,2941,162318,87110
416,2960,162407,87088
417,2980,162477,87087
418,2999,162433,87064
419,3018,162310,87064
420,3037,162093,87028
421,3056,161835,86998
422,3075,161586,86949
423,3094,161384,86880
424,3114,161259,86832
425,3133,161139,86833
426,3152,161087,86829
427,3171,161061,86877
428,3190,161082,86872
429,3209,161100,86885
430,3228,161137,86861
431,3248,161232,86865
432,3267,161300,86868
433,3286,161344,86889
434,3305,161379,86932
435,3324,161388,86941
436,3343,161369,86953
437,3362,161362,86896
438,3381,161391,86895
439,3401,161409,86905
440,3420,161459,86919
441,3439,161476,86957
442,3458,161537,86978
443,3477,161586,86981
444,3496,161652,86977
445,3515,161799,86988
446,3535,161902,87007
447,3554,161969,87024
448,3573,162009,87060
449,3592,162033,87078
450,3611,162057,87085
451,3630,162155,87091
452,3649,162282,87085
453,3669,162368,87096
454,3688,162390,87115
455,3707,162427,87121
456,3726,162467,87161
457,3745,162485,87158
458,3764,162443,87133
459,3783,162288,87072
460,3803,162043,87000
461,3822,161708,86938
462,3841,161418,86918
463,3860,161199,86913
464,3879,161078,86882
465,3898,161014,86854
466,3917,160938,86817
467,3937,160921,86804
468,3956,160880,86804
469,3975,160872,86808
470,3994,160887,86848
471,4013,160911,86841
472,4032,161016,86873
473,4051,161072,86857
474,4071,161086,86835
475,4090,161098,86857
476,4109,161061,86850
477,4128,161067,86896
478,4147,161032,86893
479,4166,161061,86871
480,4185,161059,86860
481,4205,161117,86870
482,4224,161161,86886
483,4243,161215,86895
484,4262,161261,86944
485,4281,161301,86941
486,4300,161410,86970
487,4319,161478,86971
488,4339,161548,86952
489,4358,161556,86932
490,4377,161492,86949
491,4396,161415,86967
492,4415,161321,86947
493,4434,161189,86917
494,4453,161054,86874
495,4473,160993,86838
496,4492,160871,86796
497,4511,160822,86796
498,4530,160754,86824
499,4549,160711,86808
500,4568,160603,86803
501,4587,160385,86724
502,4607,160125,86635
503,4626,159712,86535
504,4645,159337,86480
505,4664,159077,86471
506,4683,158884,86464
507,4702,158809,86444
508,4721,158819,86433
509,4741,158849,86403
510,4760,158851,86400
511,4779,158881,86444
512,4798,158941,86475
513,4817,159033,86520
514,4836,159189,86570
515,4855,159286,86542
516,4874,159381,86535
517,4894,159413,86531
518,4913,159481,86570
519,4932,159488,86577
520,4951,159502,86594
521,4970,159526,86617
522,4989,159563,86605
523,5008,159689,86623
524,5028,159850,86633
525,5047,159983,86683
526,5066,160120,86714
527,5085,160211,86775
528,5104,160282,86773
529,5123,160422,86771
530,5142,160585,86805
531,5162,160739,86821
532,5181,160822,86824
533,5200,160889,86881
534,5219,160930,86904
535,5238,160944,86915
536,5257,161029,86908
537,5276,161084,86905
538,5296,161171,86888
539,5315,161212,86914
540,5334,161305,86962
541,5353,161397,86999
542,5372,161407,86966
543,5391,161405,86958
544,5410,161229,86907
545,5430,160973,86822
546,5449,160623,86755
547,5468,160204,86688
548,5487,159894,86677
549,5506,159662,86637
550,5525,159507,86582
551,5544,159403,86540
552,5564,159334,86508
553,5583,159261,86504
554,5602,159215,86506
555,5621,159160,86533
556,5640,159142,86520
557,5659,159175,86538
558,5678,159258,86535
559,5698,159375,86528
560,5717,159375,86519
561,5736,159340,86538
562,5755,159328,86586
563,5774,159313,86575
564,5793,159407,86588
565,5812,159512,86579
566,5832,159615,86594
567,5851,159649,86594
568,5870,159725,86613
569,5889,159836,86681
570,5908,159981,86708
571,5927,160136,86726
572,5946,160277,86748
573,5966,160462,86754
574,5985,160592,86784
575,6004,160728,86837
576,6023,160852,86872
577,6042,160970,86908
578,6061,161056,86926
579,6080,161141,86925
580,6099,161261,86927
581,6119,161323,86917
582,6138,161392,86945
583,6157,161393,86980
584,6176,161454,87005
585,6195,161492,87006
586,6214,161543,86984
587,6233,161611,86979
588,6253,161557,86944
589,6272,161382,86915
590,6291,161031,86850
591,6310,160605,86797
592,6329,160202,86725
593,6348,159947,86662
594,6367,159819,86644
595,6387,159788,86622
596,6406,159789,86651
597,6425,159741,86625
598,6444,159704,86667
599,6463,159639,86662
600,6482,159722,86666
601,6501,159833,86678
602,6521,159953,86692
603,6540,160057,86707
604,6559,160117,86720
605,6578,160137,86771
606,6597,160114,86765
607,6616,160115,86759
608,6635,160151,86736
609,6655,160247,86748
610,6674,160323,86760
611,6693,160406,86801
612,6712,160478,86842
613,6731,160528,86861
614,6750,160631,86863
615,6769,160730,86877
616,6789,160859,86886
617,6808,160956,86896
618,6827,161027,86923
619,6846,161078,86980
620,6865,161108,86975
621,6884,161189,86992
622,6903,161257,86979
623,6923,161343,86966
624,6942,161370,86962
625,6961,161381,86985
626,6980,161414,87026
627,6999,161483,87056
628,7018,161527,87060
629,7037,161619,87028
630,7056,161701,87027
631,7076,161604,86986
632,7095,161395,86965
633,7114,161055,86926
634,7133,160705,86870
635,7152,160445,86817
636,7171,160233,86780
637,7190,160157,86746
638,7210,160089,86729
639,7229,160075,86732
640,7248,160078,86766
641,7267,160093,86786
642,7286,160161,86816
643,7305,160279,86828
644,7324,160404,86833
645,7344,160514,86832
646,7363,160598,86847
647,7382,160624,86865
648,7401,160589,86903
649,7420,160544,86897
650,7439,160563,86885
651,7458,160586,86858
652,7478,160623,86849
653,7497,160675,86887
654,7516,160725,86906
655,7535,160818,86960
656,7554,160862,86966
657,7573,160980,86961
658,7592,161077,86988
659,7612,161199,86983
660,7631,161299,87001
661,7650,161381,87029
662,7669,161413,87077
663,7688,161468,87072
664,7707,161546,87071
665,7726,161584,87075
666,7746,161680,87072
667,7765,161722,87068
668,7784,161791,87110
669,7803,161851,87140
670,7822,161889,87161
671,7841,161931,87152
672,7860,161831,87089
673,7880,161619,87029
674,7899,161311,86967
675,7918,161012,86922
676,7937,160716,86892
677,7956,160458,86862
678,7975,160341,86833
679,7994,160288,86815
680,8014,160282,86802
681,8033,160261,86785
682,8052,160259,86779
683,8071,160285,86838
684,8090,160340,86877
685,8109,160444,86884
686,8128,160563,86861
687,8148,160667,86878
688,8167,160676,86852
689,8186,160687,86883
690,8205,160694,86910
691,8224,160660,86910
692,8243,160630,86896
693,8262,160652,86885
694,8281,160769,86907
695,8301,160833,86877
696,8320,160919,86934
697,8339,161005,86965
698,8358,161072,87004
699,8377,161162,87014
700,8396,161259,87020
701,8415,161405,87015
702,8435,161506,87015
703,8454,161556,87035
704,8473,161585,87074
705,8492,161626,87107
706,8511,161645,87096
707,8530,161741,87112
708,8549,161836,87101
709,8569,161900,87095
710,8588,161960,87118
711,8607,161985,87141
712,8626,162011,87153
713,8645,161952,87130
714,8664,161813,87096
715,8683,161572,87006
716,8703,161216,86926
717,8722,160908,86889
718,8741,160617,86837
719,8760,160451,86832
720,8779,160347,86825
721,8798,160303,86791
722,8817,160287,86769
723,8837,160319,86768
724,8856,160337,86780
725,8875,160332,86796
726,8894,160380,86843
727,8913,160444,86858
728,8932,160541,86866
729,8951,160610,86850
730,8971,160692,86829
731,8990,160658,86845
732,9009,160636,86849
733,9028,160633,86876
734,9047,160613,86881
735,9066,160678,86872
736,9085,160728,86885
737,9105,160826,86879
738,9124,160880,86907
739,9143,160966,86935
740,9162,161032,86967
741,9181,161098,86985
742,9200,161218,87007
743,9219,161336,87015
744,9239,161502,87015
745,9258,161607,87049
746,9277,161650,87041
747,9296,161681,87086
748,9315,161685,87098
749,9334,161751,87098
750,9353,161815,87087
751,9373,161910,87096
752,9392,161970,87080
753,9411,162046,87110
754,9430,162049,87167
755,9449,162025,87153
756,9468,161944,87130
757,9487,161733,87044
758,9506,161468,86950
759,9526,161113,86861
760,9545,160792,86829
761,9564,160497,86796
762,9583,160316,86778
763,9602,160233,86775
764,9621,160239,86750
765,9640,160275,86756
766,9660,160276,86714
767,9679,160237,86749
768,9698,160257,86759
769,9717,160301,86814
770,9736,160407,86815
771,9755,160531,86841
772,9774,160644,86818
773,9794,160649,86802
774,9813,160626,86822
775,9832,160598,86824
776,9851,160606,86860
777,9870,160615,86873
778,9889,160717,86875
779,9908,160807,86865
780,9928,160897,86851
781,9947,160969,86883
782,9966,161009,86897
783,9985,161087,86949
784,10004,161150,86964
785,10023,161254,86974
786,10042,161343,86966
787,10062,161468,86971
788,10081,161547,86991
789,10100,161590,87007
790,10119,161662,87061
791,10138,161679,87044
792,10157,161728,87041
793,10176,161789,87047
794,10196,161889,87064
795,10215,161987,87087
796,10234,162076,87091
797,10253,162115,87146
798,10272,162116,87129
799,10291,162116,87113
800,10310,161985,87060
801,10330,161794,86998
802,10349,161482,86919
803,10368,161146,86871
804,10387,160826,86842
805,10406,160590,86809
806,10425,160461,86779
807,10444,160405,86752
808,10464,160373,86721
809,10483,160326,86711
810,10502,160284,86709
811,10521,160272,86752
812,10540,160309,86769
813,10559,160421,86789
814,10578,160538,86786
815,10598,160618,86772
816,10617,160624,86769
817,10636,160609,86779
818,10655,160581,86810
819,10674,160583,86813
820,10693,160628,86819
821,10712,160651,86791
822,10732,160740,86796
823,10751,160768,86795
824,10770,160847,86834
825,10789,160911,86880
826,10808,160990,86890
827,10827,161066,86892
828,10846,161142,86883
829,10865,161260,86892
830,10885,161310,86887
831,10904,161397,86922
832,10923,161444,86955
833,10942,161487,86971
834,10961,161526,86984
835,10980,161564,86958
836,10999,161629,86961
837,11019,161692,86961
838,11038,161746,86980
839,11057,161813,87013
840,11076,161871,87033
841,11095,161915,87058
842,11114,161945,87023
843,11133,161896,86999
844,11153,161727,86930
845,11172,161457,86891
846,11191,161109,86845
847,11210,160839,86808
848,11229,160584,86749
849,11248,160460,86739
850,11267,160394,86691
851,11287,160338,86676
852,11306,160330,86678
853,11325,160317,86685
854,11344,160285,86713
855,11363,160331,86716
856,11382,160422,86734
857,11401,160524,86726
858,11421,160637,86730
859,11440,160660,86755
860,11459,160623,86729
861,11478,160595,86760
862,11497,160589,86755
863,11516,160617,86729
864,11535,160638,86748
865,11555,160699,86739
866,11574,160707,86724
867,11593,160739,86757
868,11612,160804,86825
869,11631,160884,86826
870,11650,160959,86830
871,11669,161035,86835
872,11689,161114,86824
873,11708,161166,86822
874,11727,161229,86843
875,11746,161279,86897
876,11765,161326,86891
877,11784,161371,86907
878,11803,161388,86888
879,11823,161477,86881
880,11842,161535,86899
881,11861,161575,86909
882,11880,161630,86950
883,11899,161670,86975
884,11918,161679,86967
885,11937,161604,86913
886,11957,161468,86858
887,11976,161184,86783
888,11995,160870,86738
889,12014,160547,86718
890,12033,160323,86674
891,12052,160163,86639
892,12071,160092,86610
893,12090,160091,86595
894,12110,160040,86564
895,12129,160030,86589
896,12148,159997,86598
897,12167,159999,86617
898,12186,160084,86632
899,12205,160199,86635
900,12224,160321,86636
901,12244,160338,86618
902,12263,160317,86618
903,12282,160268,86645
904,12301,160242,86671
905,12320,160242,86649
906,12339,160248,86642
907,12358,160324,86650
908,12378,160392,86646
909,12397,160467,86665
910,12416,160525,86693
911,12435,160576,86725
912,12454,160609,86729
913,12473,160722,86751
914,12492,160802,86739
915,12512,160878,86745
916,12531,160896,86747
917,12550,160918,86765
918,12569,160935,86803
919,12588,160974,86807
920,12607,161056,86811
921,12626,161130,86820
922,12646,161222,86809
923,12665,161292,86820
924,12684,161303,86829
925,12703,161269,86866
926,12722,161090,86819
927,12741,160860,86746
928,12760,160551,86661
929,12780,160296,86604
930,12799,160033,86548
931,12818,159863,86525
932,12837,159734,86540
933,12856,159666,86542
934,12875,159607,86511
935,12894,159555,86487
936,12913,159584,86486
937,12933,159601,86484
938,12952,159644,86499
939,12971,159722,86544
940,12990,159785,86564
941,13009,159821,86583
942,13028,159817,86558
943,13047,159861,86560
944,13067,159873,86518
945,13086,159848,86540
946,13105,159863,86560
947,13124,159910,86597
948,13143,159926,86611
949,13162,159975,86593
950,13181,160045,86594
951,13201,160141,86596
952,13220,160238,86621
953,13239,160280,86655
954,13258,160354,86687
955,13277,160384,86685
956,13296,160448,86703
957,13315,160532,86679
958,13335,160607,86686
959,13354,160643,86685
960,13373,160661,86701
961,13392,160684,86748
962,13411,160713,86739
963,13430,160779,86771
964,13449,160850,86747
965,13469,160948,86755
966,13488,160937,86746
967,13507,160812,86727
968,13526,160567,86681
969,13545,160199,86627
970,13564,159869,86524
971,13583,159579,86475
972,13602,159381,86415
973,13622,159194,86371
974,13641,159079,86348
975,13660,158986,86358
976,13679,158918,86387
977,13698,158908,86375
978,13717,158918,86376
979,13736,158977,86361
980,13756,159045,86368
981,13775,159113,86397
982,13794,159155,86403
983,13813,159220,86458
984,13832,159214,86444
985,13851,159238,86429
986,13870,159238,86408
987,13890,159261,86417
988,13909,159271,86394
989,13928,159315,86432
990,13947,159373,86492
991,13966,159404,86488
992,13985,159485,86515
993,14004,159567,86501
994,14024,159695,86518
995,14043,159778,86528
996,14062,159850,86543
997,14081,159901,86583
998,14100,159953,86592
999,14119,159988,86614
1000,14138,160016,86592
1001,14157,160132,86589
1002,14177,160204,86594
1003,14196,160225,86619
1004,14215,160272,86664
1005,14234,160347,86687
1006,14253,160391,86693
1007,14272,160464,86689
1008,14291,160470,86675
1009,14311,160409,86624
1010,14330,160180,86567
1011,14349,159838,86501
1012,14368,159443,86465
1013,14387,159088,86385
1014,14406,158827,86345
1015,14425,158671,86287
1016,14445,158595,86264
1017,14464,158517,86271
1018,14483,158489,86251
1019,14502,158452,86285
1020,14521,158400,86288
1021,14540,158419,86298
1022,14559,158496,86312
1023,14578,158612,86303
1024,14598,158722,86311
1025,14617,158783,86335
1026,14636,158771,86333
1027,14655,158751,86378
1028,14674,158751,86364
1029,14693,158780,86356
1030,14712,158835,86346
1031,14732,158895,86345
1032,14751,158962,86380
1033,14770,159055,86405
1034,14789,159102,86448
1035,14808,159178,86455
1036,14827,159278,86487
1037,14846,159363,86471
1038,14866,159494,86472
1039,14885,159563,86489
1040,14904,159609,86511
1041,14923,159667,86556
1042,14942,159732,86573
1043,14961,159789,86575
1044,14980,159825,86554
1045,15000,159929,86564
1046,15019,159976,86567
1047,15038,160047,86606
1048,15057,160102,86653
1049,15076,160156,86657
1050,15095,160218,86656
1051,15114,160213,86643
1052,15133,160144,86584
1053,15153,159916,86522
1054,15172,159587,86460
1055,15191,159233,86410
1056,15210,158944,86391
1057,15229,158691,86364
1058,15248,158575,86316
1059,15267,158528,86290
1060,15287,158493,86268
1061,15306,158462,86279
1062,15325,158455,86287
1063,15344,158463,86337
1064,15363,158512,86355
1065,15382,158615,86370
1066,15401,158721,86362
1067,15421,158801,86363
1068,15440,158801,86358
1069,15459,158795,86375
1070,15478,158788,86409
1071,15497,158769,86398
1072,15516,158771,86406
1073,15535,158806,86403
1074,15555,158901,86394
1075,15574,158935,86390
1076,15593,158955,86409
1077,15612,159011,86458
1078,15631,159100,86475
1079,15650,159149,86489
1080,15669,159250,86481
1081,15688,159360,86508
1082,15708,159426,86496
1083,15727,159464,86514
1084,15746,159473,86540
1085,15765,159506,86583
1086,15784,159567,86582
1087,15803,159635,86591
1088,15822,159714,86579
1089,15842,159819,86585
1090,15861,159845,86600
1091,15880,159863,86605
1092,15899,159841,86629
1093,15918,159731,86592
1094,15937,159519,86521
1095,15956,159226,86444
1096,15976,158915,86373
1097,15995,158623,86320
1098,16014,158435,86293
1099,16033,158290,86315
1100,16052,158189,86322
1101,16071,158165,86300
1102,16090,158160,86274
1103,16109,158234,86282
1104,16129,158300,86284
1105,16148,158425,86330
1106,16167,158482,86364
1107,16186,158538,86393
1108,16205,158568,86397
1109,16224,158653,86411
1110,16243,158719,86377
1111,16263,158729,86379
1112,16282,158737,86379
1113,16301,158722,86396
1114,16320,158753,86434
1115,16339,158789,86445
1116,16358,158894,86459
1117,16377,158970,86463
1118,16397,159094,86480
1119,16416,159180,86492
1120,16435,159273,86526
1121,16454,159334,86564
1122,16473,159387,86576
1123,16492,159484,86593
1124,16511,159574,86589
1125,16531,159657,86574
1126,16550,159723,86577
1127,16569,159758,86612
1128,16588,159803,86648
1129,16607,159848,86664
1130,16626,159902,86683
1131,16645,159962,86670
1132,16665,160043,86665
1133,16684,159988,86651
1134,16703,159845,86611
1135,16722,159527,86556
1136,16741,159175,86495
1137,16760,158844,86433
1138,16779,158566,86367
1139,16798,158423,86324
1140,16818,158333,86292
1141,16837,158274,86302
1142,16856,158218,86313
1143,16875,158180,86323
1144,16894,158162,86330
1145,16913,158264,86335
1146,16932,158403,86355
1147,16952,158552,86357
1148,16971,158672,86420
1149,16990,158733,86440
1150,17009,158781,86473
1151,17028,158808,86469
1152,17047,158797,86439
1153,17066,158839,86436
1154,17086,158871,86442
1155,17105,158926,86456
1156,17124,158984,86501
1157,17143,159054,86543
1158,17162,159107,86538
1159,17181,159203,86552
1160,17200,159301,86553
1161,17220,159421,86559
1162,17239,159538,86582
1163,17258,159612,86616
1164,17277,159673,86661
1165,17296,159707,86663
1166,17315,159809,86693
1167,17334,159924,86687
1168,17354,160020,86671
1169,17373,160066,86698
1170,17392,160108,86717
1171,17411,160176,86765
1172,17430,160209,86771
1173,17449,160306,86784
1174,17468,160394,86758
1175,17488,160365,86715
1176,17507,160137,86664
1177,17526,159840,86615
1178,17545,159455,86567
1179,17564,159112,86515
1180,17583,158897,86460
1181,17602,158747,86419
1182,17622,158702,86410
1183,17641,158640,86394
1184,17660,158610,86387
1185,17679,158544,86411
1186,17698,158559,86434
1187,17717,158646,86454
1188,17736,158765,86457
1189,17756,158913,86458
1190,17775,159001,86466
1191,17794,159028,86499
1192,17813,159032,86516
1193,17832,159078,86538
1194,17851,159076,86552
1195,17870,159109,86525
1196,17890,159182,86527
1197,17909,159231,86515
1198,17928,159295,86551
1199,17947,159351,86595
1200,17966,159436,86626
1201,17985,159518,86660
1202,18004,159646,86634
1203,18023,159798,86642
1204,18043,159889,86665
1205,18062,160002,86701
1206,18081,160046,86721
1207,18100,160063,86743
1208,18119,160102,86758
1209,18138,160158,86754
1210,18157,160269,86742
1211,18177,160335,86759
1212,18196,160417,86771
1213,18215,160450,86788
1214,18234,160531,86842
1215,18253,160563,86845
1216,18272,160605,86816
1217,18291,160647,86803
1218,18311,160502,86751
1219,18330,160246,86690
1220,18349,159874,86645
1221,18368,159549,86606
1222,18387,159286,86574
1223,18406,159166,86529
1224,18425,159127,86512
1225,18445,159106,86501
1226,18464,159114,86519
1227,18483,159140,86547
1228,18502,159162,86580
1229,18521,159221,86585
1230,18540,159367,86618
1231,18559,159518,86615
1232,18579,159639,86625
1233,18598,159695,86646
1234,18617,159703,86642
1235,18636,159672,86686
1236,18655,159643,86660
1237,18674,159698,86657
1238,18693,159771,86663
1239,18713,159855,86680
1240,18732,159921,86672
1241,18751,159968,86701
1242,18770,160024,86755
1243,18789,160095,86757
1244,18808,160217,86778
1245,18827,160341,86789
1246,18847,160474,86795
1247,18866,160554,86814
1248,18885,160635,86839
1249,18904,160663,86871
1250,18923,160674,86887
1251,18942,160743,86885
1252,18961,160811,86886
1253,18981,160892,86877
1254,19000,160934,86885
1255,19019,160977,86912
1256,19038,161002,86954
1257,19057,161043,86943
1258,19076,161013,86936
1259,19095,160842,86851
1260,19115,160608,86787
1261,19134,160249,86707
1262,19153,159931,86669
1263,19172,159703,86665
1264,19191,159561,86659
1265,19210,159477,86625
1266,19229,159422,86612
1267,19248,159429,86561
1268,19268,159420,86562
1269,19287,159442,86597
1270,19306,159506,86636
1271,19325,159584,86665
1272,19344,159659,86698
1273,19363,159738,86686
1274,19382,159798,86665
1275,19402,159811,86655
1276,19421,159805,86661
1277,19440,159772,86668
1278,19459,159732,86685
1279,19478,159743,86696
1280,19497,159796,86692
1281,19516,159922,86700
1282,19536,160028,86713
1283,19555,160125,86730
1284,19574,160180,86771
1285,19593,160250,86823
1286,19612,160377,86834
1287,19631,160469,86829
1288,19650,160611,86832
1289,19670,160668,86840
1290,19689,160707,86859
1291,19708,160753,86894
1292,19727,160821,86943
1293,19746,160874,86929
1294,19765,160948,86917
1295,19784,161038,86914
1296,19804,161077,86910
1297,19823,161086,86919
1298,19842,160934,86888
1299,19861,160744,86875
1300,19880,160410,86805
1301,19899,160078,86715
1302,19918,159784,86644
1303,19938,159532,86572
1304,19957,159383,86577
1305,19976,159292,86579
1306,19995,159263,86579
1307,20014,159242,86594
1308,20033,159229,86566
1309,20052,159288,86562
1310,20072,159331,86549
1311,20091,159390,86592
1312,20110,159453,86614
1313,20129,159537,86673
1314,20148,159575,86660
1315,20167,159582,86635
1316,20186,159574,86618
1317,20206,159546,86604
1318,20225,159581,86615
1319,20244,159594,86639
1320,20263,159622,86680
1321,20282,159646,86669
1322,20301,159695,86653
1323,20320,159792,86685
1324,20340,159931,86688
1325,20359,160051,86708
1326,20378,160103,86745
1327,20397,160129,86799
1328,20416,160184,86780
1329,20435,160252,86771
1330,20454,160363,86780
1331,20474,160434,86793
1332,20493,160508,86812
1333,20512,160542,86834
1334,20531,160587,86871
1335,20550,160630,86868
1336,20569,160680,86859
1337,20588,160661,86838
1338,20608,160509,86758
1339,20627,160247,86720
1340,20646,159891,86663
1341,20665,159491,86626
1342,20684,159187,86556
1343,20703,159017,86512
1344,20722,158920,86490
1345,20742,158930,86467
1346,20761,158974,86486
1347,20780,158999,86503
1348,20799,158986,86541
1349,20818,159030,86548
1350,20837,159133,86564
1351,20856,159293,86572
1352,20876,159429,86583
1353,20895,159544,86604
1354,20914,159595,86639
1355,20933,159571,86644
1356,20952,159522,86646
1357,20971,159548,86627
1358,20990,159595,86621
1359,21010,159648,86618
1360,21029,159718,86641
1361,21048,159771,86670
1362,21067,159848,86710
1363,21086,159921,86722
1364,21105,160030,86749
1365,21124,160139,86745
1366,21144,160254,86754
1367,21163,160361,86789
1368,21182,160444,86804
1369,21201,160495,86860
1370,21220,160551,86854
1371,21239,160629,86874
1372,21258,160660,86852
1373,21278,160735,86834
1374,21297,160788,86864
1375,21316,160836,86878
1376,21335,160875,86934
1377,21354,160849,86875
1378,21373,160728,86852
1379,21392,160490,86770
1380,21412,160166,86678
1381,21431,159783,86629
1382,21450,159430,86556
1383,21469,159213,86552
1384,21488,159089,86531
1385,21507,159042,86534
1386,21526,159078,86520
1387,21546,159087,86497
1388,21565,159133,86519
1389,21584,159161,86533
1390,21603,159232,86603
1391,21622,159355,86632
1392,21641,159512,86652
1393,21660,159635,86648
1394,21680,159726,86626
1395,21699,159702,86640
1396,21718,159703,86643
1397,21737,159695,86683
1398,21756,159672,86668
1399,21775,159735,86691
1400,21794,159818,86673
1401,21814,159933,86681
1402,21833,160051,86726
1403,21852,160141,86734
1404,21871,160247,86808
1405,21890,160331,86835
1406,21909,160463,86847
1407,21928,160574,86847
1408,21948,160704,86836
1409,21967,160757,86848
1410,21986,160776,86873
1411,22005,160871,86921
1412,22024,160896,86926
1413,22043,160967,86943
1414,22062,161075,86928
1415,22082,161192,86936
1416,22101,161242,86935
1417,22120,161236,86939
1418,22139,161142,86962
1419,22158,160906,86895
1420,22177,160601,86825
1421,22196,160253,86734
1422,22216,159984,86671
1423,22235,159767,86626
1424,22254,159663,86634
1425,22273,159599,86666
1426,22292,159567,86664
1427,22311,159570,86659
1428,22330,159636,86647
1429,22350,159749,86657
1430,22369,159817,86667
1431,22388,159924,86715
1432,22407,159998,86738
1433,22426,160055,86757
1434,22445,160126,86765
1435,22464,160113,86742
1436,22484,160113,86723
1437,22503,160100,86723
1438,22522,160095,86738
1439,22541,160116,86783
1440,22560,160163,86812
1441,22579,160268,86801
1442,22598,160387,86807
1443,22618,160499,86809
1444,22637,160574,86824
1445,22656,160640,86860
1446,22675,160733,86917
1447,22694,160783,86921
1448,22713,160877,86937
1449,22732,160920,86932
1450,22752,161013,86903
1451,22771,161043,86930
1452,22790,161105,86938
1453,22809,161142,86979
1454,22828,161155,86984
1455,22847,161203,87000
1456,22866,161217,86956
1457,22886,161130,86915
1458,22905,160882,86848
1459,22924,160509,86781
1460,22943,160126,86763
1461,22962,159811,86682
1462,22981,159648,86653
1463,23000,159577,86634
1464,23020,159573,86610
1465,23039,159544,86615
1466,23058,159526,86610
1467,23077,159507,86655
1468,23096,159532,86674
1469,23115,159636,86692
1470,23134,159786,86688
1471,23154,159935,86697
1472,23173,159963,86701
1473,23192,159947,86703
1474,23211,159880,86723
1475,23230,159822,86713
1476,23249,159834,86696
1477,23268,159843,86693
1478,23288,159927,86704
1479,23307,159951,86699
1480,23326,159988,86718
1481,23345,160053,86779
1482,23364,160131,86778
1483,23383,160232,86807
1484,23402,160328,86791
1485,23422,160413,86806
1486,23441,160482,86794
1487,23460,160525,86819
1488,23479,160560,86886
1489,23498,160619,86891
1490,23517,160680,86904
1491,23536,160739,86887
1492,23556,160824,86890
1493,23575,160859,86873
1494,23594,160841,86879
1495,23613,160676,86857
1496,23632,160372,86806
1497,23651,160008,86713
1498,23670,159601,86613
1499,23690,159366,86566
1500,23709,159168,86519
1501,23728,159102,86518
1502,23747,159046,86559
1503,23766,159047,86553
1504,23785,159041,86552
1505,23804,159056,86531
1506,23824,159190,86536
1507,23843,159303,86572
1508,23862,159439,86600
1509,23881,159541,86653
1510,23900,159609,86677
1511,23919,159628,86672
1512,23938,159620,86658
1513,23958,159658,86639
1514,23977,159651,86608
1515,23996,159663,86632
1516,24015,159683,86672
1517,24034,159714,86685
1518,24053,159767,86701
1519,24072,159872,86694
1520,24091,160013,86710
1521,24111,160088,86707
1522,24130,160188,86733
1523,24149,160225,86787
1524,24168,160285,86806
1525,24187,160328,86803
1526,24206,160416,86804
1527,24225,160522,86821
1528,24245,160622,86793
1529,24264,160689,86854
1530,24283,160713,86882
1531,24302,160760,86909
1532,24321,160775,86900
1533,24340,160760,86856
1534,24360,160595,86791
1535,24379,160262,86710
1536,24398,159904,86632
1537,24417,159479,86590
1538,24436,159185,86553
1539,24455,158989,86516
1540,24474,158956,86486
1541,24494,158995,86467
1542,24513,158990,86472
1543,24532,159008,86482
1544,24551,159076,86544
1545,24570,159173,86578
1546,24589,159304,86622
1547,24608,159447,86610
1548,24628,159610,86611
1549,24647,159667,86605
1550,24666,159666,86620
1551,24685,159658,86653
1552,24704,159631,86666
1553,24723,159653,86672
1554,24742,159675,86652
1555,24762,159772,86643
1556,24781,159820,86638
1557,24800,159885,86682
1558,24819,159969,86733
1559,24838,160055,86749
1560,24857,160147,86765
1561,24876,160236,86737
1562,24896,160332,86758
1563,24915,160397,86761
1564,24934,160460,86790
1565,24953,160503,86823
1566,24972,160530,86841
1567,24991,160576,86843
1568,25010,160638,86819
1569,25029,160751,86829
1570,25049,160810,86829
1571,25068,160876,86878
1572,25087,160895,86893
1573,25106,160825,86883
1574,25125,160637,86836
1575,25144,160387,86741
1576,25163,160107,86667
1577,25183,159764,86593
1578,25202,159517,86581
1579,25221,159381,86589
1580,25240,159345,86591
1581,25259,159329,86589
1582,25278,159364,86561
1583,25297,159439,86576
1584,25317,159511,86565
1585,25336,159602,86597
1586,25355,159713,86667
1587,25374,159838,86699
1588,25393,159904,86718
1589,25412,159985,86694
1590,25431,160032,86677
1591,25451,160013,86676
1592,25470,160013,86687
1593,25489,160023,86729
1594,25508,160055,86730
1595,25527,160102,86739
1596,25546,160172,86738
1597,25565,160310,86741
1598,25585,160387,86746
1599,25604,160468,86789
1600,25623,160509,86825
1601,25642,160586,86836
1602,25661,160657,86846
1603,25680,160746,86845
1604,25700,160855,86846
1605,25719,160911,86854
1606,25738,160948,86875
1607,25757,160976,86906
1608,25776,161045,86921
1609,25795,161086,86928
1610,25814,161144,86929
1611,25834,161195,86906
1612,25853,161187,86890
1613,25872,161093,86882
1614,25891,160846,86838
1615,25910,160511,86790
1616,25929,160157,86716
1617,25948,159898,86648
1618,25968,159745,86611
1619,25987,159628,86557
1620,26006,159575,86581
1621,26025,159542,86606
1622,26044,159531,86618
1623,26063,159558,86608
1624,26082,159599,86609
1625,26101,159743,86634
1626,26121,159843,86631
1627,26140,159948,86674
1628,26159,159998,86687
1629,26178,159997,86700
1630,26197,159967,86696
1631,26216,159943,86682
1632,26235,159992,86666
1633,26255,160015,86650
1634,26274,160045,86681
1635,26293,160084,86698
1636,26312,160123,86736
1637,26331,160197,86755
1638,26350,160290,86753
1639,26369,160427,86768
1640,26389,160513,86768
1641,26408,160619,86793
1642,26427,160642,86822
1643,26446,160665,86835
1644,26465,160692,86848
1645,26484,160742,86835
1646,26503,160846,86835
1647,26523,160891,86830
1648,26542,160915,86857
1649,26561,160917,86866
1650,26580,160901,86888
1651,26599,160846,86865
1652,26618,160681,86794
1653,26637,160419,86712
1654,26657,160035,86620
1655,26676,159665,86562
1656,26695,159349,86518
1657,26714,159142,86521
1658,26733,159032,86491
1659,26752,159025,86470
1660,26771,159001,86453
1661,26791,159001,86442
1662,26810,158982,86442
1663,26829,159022,86488
1664,26848,159133,86532
1665,26867,159227,86539
1666,26886,159373,86583
1667,26905,159479,86550
1668,26925,159540,86554
1669,26944,159537,86568
1670,26963,159525,86579
1671,26982,159586,86626
1672,27001,159627,86615
1673,27020,159692,86612
1674,27039,159766,86627
1675,27059,159841,86624
1676,27078,159946,86657
1677,27097,160013,86680
1678,27116,160111,86743
1679,27135,160140,86731
1680,27154,160215,86737
1681,27173,160303,86733
1682,27193,160382,86729
1683,27212,160444,86766
1684,27231,160481,86766
1685,27250,160508,86814
1686,27269,160509,86809
1687,27288,160584,86806
1688,27307,160644,86807
1689,27327,160719,86784
1690,27346,160736,86794
1691,27365,160637,86776
1692,27384,160370,86748
1693,27403,159970,86658
1694,27422,159577,86554
1695,27441,159243,86478
1696,27461,159015,86417
1697,27480,158918,86414
1698,27499,158854,86421
1699,27518,158812,86439
1700,27537,158786,86426
1701,27556,158793,86421
1702,27575,158861,86436
1703,27595,158995,86457
1704,27614,159137,86478
1705,27633,159247,86529
1706,27652,159355,86569
1707,27671,159400,86588
1708,27690,159481,86582
1709,27709,159491,86566
1710,27729,159502,86538
1711,27748,159504,86563
1712,27767,159515,86555
1713,27786,159582,86603
1714,27805,159641,86646
1715,27824,159747,86643
1716,27843,159844,86644
1717,27863,159997,86661
1718,27882,160112,86680
1719,27901,160215,86722
1720,27920,160299,86760
1721,27939,160378,86785
1722,27958,160482,86802
1723,27977,160584,86794
1724,27997,160710,86799
1725,28016,160762,86806
1726,28035,160811,86823
1727,28054,160852,86870
1728,28073,160864,86873
1729,28092,160928,86866
1730,28111,160953,86869
1731,28131,160959,86815
1732,28150,160793,86781
1733,28169,160469,86719
1734,28188,160091,86657
1735,28207,159706,86592
1736,28226,159402,86538
1737,28245,159240,86495
1738,28265,159184,86467
1739,28284,159169,86488
1740,28303,159175,86492
1741,28322,159235,86544
1742,28341,159263,86548
1743,28360,159356,86553
1744,28379,159460,86563
1745,28399,159606,86581
1746,28418,159696,86604
1747,28437,159757,86614
1748,28456,159760,86656
1749,28475,159762,86643
1750,28494,159781,86636
1751,28513,159765,86616
1752,28533,159805,86616
1753,28552,159846,86621
1754,28571,159891,86643
1755,28590,159943,86699
1756,28609,159992,86699
1757,28628,160059,86705
1758,28647,160138,86691
1759,28667,160253,86712
1760,28686,160315,86708
1761,28705,160360,86729
1762,28724,160427,86784
1763,28743,160425,86783
1764,28762,160487,86775
1765,28781,160536,86795
1766,28801,160612,86764
1767,28820,160654,86778
1768,28839,160645,86783
1769,28858,160675,86827
1770,28877,160715,86843
1771,28896,160796,86839
1772,28915,160806,86813
1773,28935,160685,86761
1774,28954,160378,86666
1775,28973,159984,86600
1776,28992,159601,86563
1777,29011,159319,86515
1778,29030,159190,86491
1779,29049,159102,86453
1780,29069,159092,86433
1781,29088,159044,86424
1782,29107,159061,86445
1783,29126,159088,86501
1784,29145,159128,86496
1785,29164,159260,86526
1786,29183,159387,86541
1787,29203,159512,86551
1788,29222,159572,86534
1789,29241,159588,86556
1790,29260,159578,86592
1791,29279,159557,86601
1792,29298,159599,86591
1793,29317,159623,86578
1794,29337,159701,86577
1795,29356,159762,86591
1796,29375,159816,86605
1797,29394,159849,86664
1798,29413,159901,86647
1799,29432,159983,86671
1800,29451,160066,86664
1801,29471,160177,86668
1802,29490,160247,86685
1803,29509,160300,86689
1804,29528,160322,86741
1805,29547,160330,86748
1806,29566,160415,86765
1807,29585,160474,86750
1808,29605,160578,86740
1809,29624,160641,86747
1810,29643,160688,86793
1811,29662,160739,86831
1812,29681,160757,86829
1813,29700,160716,86795
1814,29719,160523,86726
1815,29739,160263,86650
1816,29758,159998,86593
1817,29777,159786,86578
1818,29796,159647,86587
1819,29815,159567,86571
1820,29834,159521,86569
1821,29853,159566,86540
1822,29873,159609,86559
1823,29892,159664,86558
1824,29911,159736,86588
1825,29930,159832,86640
1826,29949,159942,86660
1827,29968,160045,86676
1828,29987,160077,86662
