sample_index,timestamp_ms,ir,red
0,0,163858,86776
1,1,164067,86818
2,1,164325,86860
3,1,164429,86841
4,1,164159,86696
5,1,163700,86552
6,2,163573,86538
7,2,163899,86655
8,2,164440,86785
9,2,164810,86862
10,2,164842,86863
11,2,164719,86814
12,3,164617,86776
13,3,164617,86742
14,3,164668,86739
15,3,164650,86715
16,3,164593,86689
17,3,164524,86702
18,3,164577,86736
19,3,164598,86685
20,3,164452,86592
21,4,164224,86500
22,4,164137,86476
23,4,164091,86466
24,4,164125,86489
25,4,164158,86498
26,4,164106,86481
27,4,164091,86469
28,4,164098,86450
29,5,164030,86390
30,5,163795,86333
31,5,163660,86349
32,5,163813,86420
33,5,164028,86460
34,5,164198,86459
35,5,164149,86379
36,5,163888,86265
37,5,163586,86197
38,6,163279,86114
39,6,162936,86048
40,6,162719,86008
41,6,162841,86059
42,6,163130,86090
43,6,163453,86151
44,7,163725,86240
45,7,163987,86325
46,7,164226,86458
47,7,164478,86552
48,7,164710,86610
49,7,164766,86570
50,7,164736,86537
51,7,164631,86506
52,7,164531,86509
53,7,164593,86551
54,8,164602,86528
55,8,164532,86478
56,8,164393,86406
57,8,164310,86374
58,8,164414,86416
59,8,164610,86485
60,8,164797,86559
61,8,164805,86553
62,8,164790,86528
63,8,164857,86525
64,9,164941,86559
65,9,165015,86593
66,9,165072,86679
67,9,165173,86787
68,9,165270,86824
69,9,165424,86892
70,9,165553,86908
71,9,165654,86940
72,9,165690,86961
73,9,165711,86990
74,10,165757,87041
75,10,165809,87032
76,10,165865,87025
77,10,165834,86965
78,10,165770,86913
79,10,165661,86871
80,10,165547,86830
81,10,165441,86828
82,10,165337,86788
83,11,165358,86773
84,11,165362,86727
85,11,165307,86681
86,11,165145,86631
87,11,164928,86576
88,11,164816,86584
89,11,164771,86546
90,11,164731,86529
91,11,164652,86474
92,11,164696,86479
93,11,164774,86499
94,11,164866,86506
95,12,164944,86566
96,12,165076,86593
97,12,165196,86606
98,12,165249,86572
99,12,165249,86551
100,12,165183,86522
101,12,165122,86506
102,12,165057,86540
103,12,165058,86526
104,12,165129,86517
105,12,165180,86521
106,12,165195,86472
107,13,165069,86444
108,13,164939,86428
109,13,164859,86447
110,13,164724,86402
111,13,164587,86352
112,13,164514,86315
113,13,164400,86253
114,13,164265,86199
115,13,164149,86180
116,13,164096,86207
117,13,164089,86203
118,13,164173,86198
119,13,164155,86177
120,14,164072,86128
121,14,163956,86079
122,14,163889,86070
123,14,163907,86118
124,14,164037,86155
125,14,164218,86172
126,14,164327,86166
127,14,164403,86164
128,14,164413,86146
129,14,164352,86151
130,14,164279,86163
131,14,164225,86148
132,14,164288,86162
133,15,164399,86173
134,15,164457,86159
135,15,164468,86162
136,15,164429,86170
137,15,164318,86151
138,15,164155,86104
139,15,164092,86103
140,15,164088,86084
141,15,164095,86039
142,15,164102,86042
143,15,163971,86019
144,15,163812,86003
145,15,163699,85990
146,16,163700,85976
147,16,163727,85948
148,16,163687,85926
149,16,163533,85882
150,16,163404,85868
151,16,163349,85906
152,16,163319,85870
153,16,163264,85863
154,16,163173,85815
155,16,163185,85810
156,16,163212,85808
157,16,163290,85823
158,16,163334,85865
159,16,163256,85830
160,17,163223,85826
161,17,163264,85816
162,17,163367,85812
163,17,163458,85808
164,17,163528,85849
165,17,163624,85897
166,17,163690,85899
167,17,163753,85911
168,17,163669,85847
169,17,163528,85810
170,17,163307,85756
171,17,163236,85768
172,17,163205,85798
173,17,163274,85802
174,17,163366,85816
175,18,163321,85782
176,18,163201,85737
177,18,163008,85702
178,18,162794,85677
179,18,162664,85684
180,18,162590,85683
181,18,162596,85696
182,18,162660,85667
183,18,162679,85630
184,18,162565,85602
185,18,162542,85626
186,18,162624,85687
187,18,162842,85697
188,18,162938,85692
189,18,162872,85655
190,19,162743,85599
191,19,162617,85585
192,19,162644,85606
193,19,162791,85676
194,19,162927,85681
195,19,163048,85715
196,19,163139,85698
197,19,163237,85676
198,19,163169,85669
199,19,163128,85676
200,19,163115,85695
201,19,163067,85693
202,19,163016,85683
203,19,162971,85660
204,19,163006,85647
205,20,163050,85644
206,20,163119,85655
207,20,163095,85706
208,20,162997,85666
209,20,162903,85654
210,20,162871,85628
211,20,162928,85607
212,20,162911,85590
213,20,162875,85600
214,20,162799,85613
215,20,162693,85596
216,20,162595,85577
217,20,162523,85561
218,20,162544,85551
219,20,162532,85553
220,21,162597,85566
221,21,162628,85582
222,21,162538,85593
223,21,162431,85596
224,21,162387,85558
225,21,162385,85554
226,21,162393,85545
227,21,162459,85560
228,21,162448,85590
229,21,162455,85568
230,21,162370,85562
231,21,162329,85534
232,21,162402,85517
233,21,162447,85492
234,22,162477,85499
235,22,162521,85553
236,22,162618,85571
237,22,162746,85596
238,22,162923,85597
239,22,163087,85612
240,22,163129,85590
241,22,163134,85601
242,22,163108,85612
243,22,163082,85625
244,22,163060,85626
245,22,163049,85590
246,22,163041,85586
247,22,163020,85570
248,22,163013,85582
249,23,162969,85582
250,23,162834,85596
251,23,162776,85554
252,23,162828,85579
253,23,162885,85551
254,23,162814,85511
255,23,162691,85501
256,23,162627,85507
257,23,162658,85560
258,23,162724,85550
259,23,162784,85567
260,23,162844,85549
261,23,162917,85536
262,23,162913,85522
263,37,162875,85539
264,56,162846,85571
265,75,162899,85586
266,94,163063,85599
267,113,163148,85584
268,133,163176,85568
269,152,163045,85531
270,171,162889,85518
271,190,162737,85540
272,209,162650,85513
273,228,162650,85519
274,247,162671,85499
275,267,162757,85481
276,286,162708,85482
277,305,162661,85479
278,324,162665,85507
279,343,162697,85522
280,362,162729,85522
281,381,162761,85503
282,401,162764,85483
283,420,162732,85474
284,439,162798,85495
285,458,162852,85530
286,477,162784,85526
287,496,162683,85516
288,515,162640,85480
289,534,162672,85470
290,554,162666,85433
291,573,162568,85439
292,592,162436,85426
293,611,162290,85409
294,630,162167,85404
295,649,162079,85374
296,668,162093,85359
297,688,162165,85354
298,707,162185,85364
299,726,162192,85394
300,745,162214,85432
301,764,162286,85430
302,783,162362,85423
303,802,162395,85410
304,822,162444,85408
305,841,162487,85424
306,860,162555,85447
307,879,162616,85477
308,898,162625,85468
309,917,162640,85447
310,936,162618,85451
311,956,162602,85434
312,975,162603,85422
313,994,162640,85430
314,1013,162640,85479
315,1032,162617,85461
316,1051,162685,85483
317,1070,162792,85468
318,1090,162908,85465
319,1109,162966,85475
320,1128,163002,85495
321,1147,163094,85554
322,1166,163196,85565
323,1185,163214,85552
324,1204,163116,85522
325,1224,163036,85482
326,1243,163020,85502
327,1262,163164,85532
328,1281,163258,85574
329,1300,163265,85561
330,1319,163133,85542
331,1338,163043,85497
332,1357,163028,85462
333,1377,162971,85446
334,1396,162869,85443
335,1415,162777,85469
336,1434,162745,85452
337,1453,162761,85447
338,1472,162800,85429
339,1491,162746,85417
340,1511,162699,85386
341,1530,162678,85391
342,1549,162679,85425
343,1568,162729,85445
344,1587,162727,85443
345,1606,162727,85428
346,1625,162740,85406
347,1645,162776,85405
348,1664,162795,85410
349,1683,162786,85415
350,1702,162839,85472
351,1721,162893,85469
352,1740,162902,85433
353,1759,162854,85416
354,1779,162868,85401
355,1798,162879,85397
356,1817,162819,85391
357,1836,162733,85412
358,1855,162719,85409
359,1874,162759,85421
360,1893,162819,85395
361,1913,162864,85384
362,1932,162883,85388
363,1951,162935,85424
364,1970,162939,85460
365,1989,162901,85435
366,2008,162882,85452
367,2027,162971,85435
368,2047,163087,85432
369,2066,163097,85431
370,2085,163055,85415
371,2104,162989,85438
372,2123,162969,85445
373,2142,162911,85424
374,2161,162928,85396
375,2180,162901,85376
376,2200,162840,85356
377,2219,162739,85350
378,2238,162629,85353
379,2257,162575,85359
380,2276,162541,85343
381,2295,162505,85325
382,2314,162525,85325
383,2334,162537,85305
384,2353,162562,85318
385,2372,162543,85334
386,2391,162506,85362
387,2410,162477,85353
388,2429,162532,85354
389,2448,162626,85323
390,2468,162735,85352
391,2487,162771,85353
392,2506,162775,85355
393,2525,162741,85378
394,2544,162696,85358
395,2563,162639,85326
396,2582,162570,85308
397,2602,162524,85275
398,2621,162507,85289
399,2640,162514,85292
400,2659,162570,85339
401,2678,162581,85348
402,2697,162591,85322
403,2716,162596,85307
404,2736,162605,85306
405,2755,162637,85313
406,2774,162703,85315
407,2793,162742,85359
408,2812,162691,85345
409,2831,162664,85349
410,2850,162648,85324
411,2870,162702,85320
412,2889,162711,85303
413,2908,162757,85323
414,2927,162726,85338
415,2946,162679,85334
416,2965,162644,85342
417,2984,162626,85312
418,3004,162634,85296
419,3023,162563,85255
420,3042,162479,85259
421,3061,162417,85295
422,3080,162436,85308
423,3099,162403,85312
424,3118,162406,85276
425,3137,162395,85280
426,3157,162420,85279
427,3176,162512,85303
428,3195,162561,85335
429,3214,162563,85347
430,3233,162536,85340
431,3252,162572,85316
432,3271,162672,85330
433,3291,162761,85324
434,3310,162831,85349
435,3329,162814,85342
436,3348,162721,85331
437,3367,162594,85326
438,3386,162511,85304
439,3405,162486,85271
440,3425,162542,85268
441,3444,162567,85278
442,3463,162572,85288
443,3482,162628,85337
444,3501,162680,85335
445,3520,162701,85340
446,3539,162767,85314
447,3559,162844,85304
448,3578,162896,85317
449,3597,162943,85337
450,3616,163026,85383
451,3635,163113,85396
452,3654,163249,85426
453,3673,163316,85407
454,3693,163383,85377
455,3712,163289,85372
456,3731,163211,85361
457,3750,163093,85373
458,3769,163060,85366
459,3788,163058,85377
460,3807,163082,85351
461,3827,163122,85334
462,3846,163118,85327
463,3865,163132,85353
464,3884,163136,85373
465,3903,163098,85382
466,3922,163082,85377
467,3941,163085,85355
468,3960,163126,85358
469,3980,163139,85334
470,3999,163108,85334
471,4018,163103,85363
472,4037,163138,85387
473,4056,163157,85379
474,4075,163166,85368
475,4094,163192,85363
476,4114,163176,85347
477,4133,163164,85345
478,4152,163107,85354
479,4171,163050,85367
480,4190,162946,85342
481,4209,162950,85328
482,4228,162953,85320
483,4248,162984,85298
484,4267,162984,85306
485,4286,162969,85337
486,4305,163061,85373
487,4324,163104,85360
488,4343,163151,85356
489,4362,163137,85354
490,4382,163189,85343
491,4401,163273,85336
492,4420,163323,85366
493,4439,163275,85396
494,4458,163223,85377
495,4477,163261,85384
496,4496,163297,85375
497,4516,163279,85326
498,4535,163150,85309
499,4554,163072,85309
500,4573,163051,85349
501,4592,163088,85363
502,4611,163187,85378
503,4630,163262,85366
504,4650,163273,85334
505,4669,163173,85302
506,4688,163033,85289
507,4707,162899,85291
508,4726,162881,85315
509,4745,162922,85328
510,4764,163021,85311
511,4783,163008,85290
512,4803,162911,85261
513,4822,162839,85268
514,4841,162828,85281
515,4860,162847,85310
516,4879,162847,85319
517,4898,162937,85293
518,4917,162925,85253
519,4937,162839,85226
520,4956,162717,85222
521,4975,162581,85224
522,4994,162566,85260
523,5013,162632,85273
524,5032,162765,85257
525,5051,162820,85257
526,5071,162799,85218
527,5090,162721,85221
528,5109,162693,85244
529,5128,162701,85273
530,5147,162731,85264
531,5166,162844,85273
532,5185,162883,85254
533,5205,162847,85233
534,5224,162767,85221
535,5243,162748,85251
536,5262,162783,85272
537,5281,162789,85277
538,5300,162808,85259
539,5319,162760,85238
540,5339,162750,85210
541,5358,162727,85197
542,5377,162669,85205
543,5396,162578,85209
544,5415,162533,85210
545,5434,162567,85205
546,5453,162641,85195
547,5473,162661,85197
548,5492,162715,85199
549,5511,162755,85218
550,5530,162768,85256
551,5549,162833,85265
552,5568,162875,85270
553,5587,162898,85237
554,5607,162956,85234
555,5626,162968,85236
556,5645,162999,85248
557,5664,163026,85295
558,5683,163028,85288
559,5702,163040,85282
560,5721,163015,85245
561,5741,163008,85233
562,5760,162960,85219
563,5779,162888,85223
564,5798,162824,85227
565,5817,162786,85227
566,5836,162843,85259
567,5855,162950,85242
568,5874,163074,85250
569,5894,163085,85217
570,5913,163023,85221
571,5932,162967,85243
572,5951,162962,85277
573,5970,162983,85281
574,5989,162971,85233
575,6008,162958,85225
576,6028,162893,85199
577,6047,162830,85209
578,6066,162771,85223
579,6085,162740,85242
580,6104,162759,85239
581,6123,162803,85208
582,6142,162797,85197
583,6162,162727,85161
584,6181,162682,85165
585,6200,162647,85180
586,6219,162627,85205
587,6238,162611,85201
588,6257,162650,85211
589,6276,162734,85194
590,6296,162769,85171
591,6315,162725,85169
592,6334,162623,85162
593,6353,162560,85192
594,6372,162581,85170
595,6391,162626,85171
596,6410,162633,85157
597,6430,162628,85145
598,6449,162649,85145
599,6468,162696,85155
600,6487,162765,85217
601,6506,162755,85217
602,6525,162798,85205
603,6544,162725,85152
604,6564,162656,85117
605,6583,162528,85110
606,6602,162505,85108
607,6621,162486,85141
608,6640,162502,85135
609,6659,162546,85152
610,6678,162561,85135
611,6698,162626,85117
612,6717,162633,85126
613,6736,162618,85124
614,6755,162577,85150
615,6774,162504,85138
616,6793,162498,85141
617,6812,162587,85141
618,6832,162738,85149
619,6851,162816,85139
620,6870,162782,85151
621,6889,162664,85171
622,6908,162567,85141
623,6927,162560,85153
624,6946,162578,85106
625,6965,162622,85093
626,6985,162612,85093
627,7004,162532,85087
628,7023,162429,85103
629,7042,162410,85102
630,7061,162423,85117
631,7080,162461,85085
632,7099,162497,85084
633,7119,162457,85054
634,7138,162404,85062
635,7157,162418,85093
636,7176,162465,85121
637,7195,162560,85142
638,7214,162602,85132
639,7233,162626,85121
640,7253,162659,85098
641,7272,162675,85131
642,7291,162630,85117
643,7310,162614,85150
644,7329,162555,85137
645,7348,162507,85085
646,7367,162457,85066
647,7387,162405,85042
648,7406,162315,85046
649,7425,162248,85039
650,7444,162187,85065
651,7463,162145,85073
652,7482,162237,85059
653,7501,162366,85087
654,7521,162475,85081
655,7540,162489,85063
656,7559,162482,85069
657,7578,162555,85141
658,7597,162629,85138
659,7616,162714,85132
660,7635,162763,85133
661,7655,162814,85132
662,7674,162897,85137
663,7693,162931,85145
664,7712,162905,85177
665,7731,162833,85161
666,7750,162737,85135
667,7769,162743,85125
668,7789,162806,85086
669,7808,162838,85099
670,7827,162821,85114
671,7846,162764,85128
672,7865,162672,85124
673,7884,162693,85123
674,7903,162752,85125
675,7923,162869,85115
676,7942,162929,85106
677,7961,162991,85136
678,7980,163014,85172
679,7999,162981,85163
680,8018,162932,85156
681,8037,162786,85093
682,8056,162671,85077
683,8076,162696,85069
684,8095,162774,85106
685,8114,162741,85097
686,8133,162598,85084
687,8152,162351,85041
688,8171,162136,84981
689,8190,162075,84969
690,8210,162099,84961
691,8229,162199,85004
692,8248,162231,85024
693,8267,162223,85028
694,8286,162191,85028
695,8305,162213,85010
696,8324,162300,85038
697,8344,162384,85000
698,8363,162423,85038
699,8382,162519,85077
700,8401,162545,85100
701,8420,162579,85127
702,8439,162636,85086
703,8458,162651,85059
704,8478,162609,85046
705,8497,162572,85059
706,8516,162573,85085
707,8535,162643,85107
708,8554,162619,85086
709,8573,162558,85055
710,8592,162544,85036
711,8612,162490,85018
712,8631,162454,85023
713,8650,162370,85012
714,8669,162262,85028
715,8688,162223,85009
716,8707,162264,85012
717,8726,162268,84993
718,8746,162362,85015
719,8765,162386,85007
720,8784,162376,85017
721,8803,162403,85053
722,8822,162465,85068
723,8841,162601,85084
724,8860,162669,85062
725,8880,162624,85046
726,8899,162596,85038
727,8918,162576,85037
728,8937,162544,85070
729,8956,162386,85026
730,8975,162248,84993
731,8994,162191,84981
732,9014,162225,84958
733,9033,162238,84956
734,9052,162225,84975
735,9071,162110,84985
736,9090,162056,84981
737,9109,162055,84974
738,9128,162063,84967
739,9148,162101,84933
740,9167,162090,84928
741,9186,162028,84918
742,9205,161943,84939
743,9224,161907,84934
744,9243,161930,84948
745,9262,161956,84911
746,9282,162009,84912
747,9301,162011,84911
748,9320,161982,84919
749,9339,161959,84937
750,9358,161931,84953
751,9377,161923,84937
752,9396,161877,84900
753,9416,161877,84879
754,9435,161834,84872
755,9454,161801,84893
756,9473,161744,84905
757,9492,161760,84909
758,9511,161785,84925
759,9530,161826,84897
760,9549,161899,84887
761,9569,161950,84892
762,9588,162035,84921
763,9607,162114,84944
764,9626,162099,84959
765,9645,162073,84958
766,9664,162050,84926
767,9683,162090,84934
768,9703,162178,84943
769,9722,162292,84971
770,9741,162382,85004
771,9760,162442,85013
772,9779,162404,85007
773,9798,162331,84973
774,9817,162294,84937
775,9837,162245,84918
776,9856,162262,84941
777,9875,162295,84972
778,9894,162355,84996
779,9913,162317,84970
780,9932,162263,84939
781,9951,162260,84929
782,9971,162239,84899
783,9990,162289,84926
784,10009,162297,84950
785,10028,162320,84979
786,10047,162337,84977
787,10066,162359,84963
788,10085,162386,84940
789,10105,162375,84927
790,10124,162352,84922
791,10143,162339,84972
792,10162,162399,85001
793,10181,162430,84993
794,10200,162387,84941
795,10219,162287,84902
796,10239,162165,84875
797,10258,162129,84903
798,10277,162137,84918
799,10296,162192,84950
800,10315,162218,84942
801,10334,162247,84931
802,10353,162292,84930
803,10373,162327,84918
804,10392,162384,84924
805,10411,162369,84942
806,10430,162372,84966
807,10449,162371,84974
808,10468,162468,84966
809,10487,162531,84975
810,10507,162583,84954
811,10526,162571,84960
812,10545,162549,84972
813,10564,162566,85011
814,10583,162645,85030
815,10602,162746,85024
816,10621,162709,84981
817,10641,162614,84960
818,10660,162482,84931
819,10679,162421,84945
820,10698,162448,84990
821,10717,162492,84997
822,10736,162600,85017
823,10755,162631,84983
824,10775,162666,84980
825,10794,162701,85001
826,10813,162713,85003
827,10832,162725,85046
828,10851,162722,85051
829,10870,162793,85054
830,10889,162882,85038
831,10909,162948,85024
832,10928,162969,85057
833,10947,162964,85054
834,10966,162943,85074
835,10985,162939,85082
836,11004,162951,85069
837,11023,162949,85043
838,11043,162926,85030
839,11062,162887,85030
840,11081,162839,85017
841,11100,162857,85066
842,11119,162831,85063
843,11138,162866,85046
844,11157,162866,85035
845,11177,162890,85026
846,11196,162940,85035
847,11215,162978,85054
848,11234,163019,85107
849,11253,163021,85093
850,11272,163060,85072
851,11291,163071,85078
852,11311,163066,85065
853,11330,162998,85038
854,11349,162996,85065
855,11368,163033,85109
856,11387,163051,85121
857,11406,163049,85108
858,11425,163033,85072
859,11445,162992,85039
860,11464,162937,85033
861,11483,162889,85029
862,11502,162861,85071
863,11521,162839,85072
864,11540,162812,85042
865,11559,162804,85038
866,11579,162848,85026
867,11598,162883,85033
868,11617,162917,85047
869,11636,162914,85081
870,11655,162892,85074
871,11674,162933,85074
872,11693,162990,85064
873,11713,163055,85057
874,11732,163109,85066
875,11751,163076,85082
876,11770,163064,85113
877,11789,163022,85108
878,11808,163022,85100
879,11827,162997,85064
880,11847,163003,85044
881,11866,162945,85018
882,11885,162940,85041
883,11904,162886,85049
884,11923,162791,85040
885,11942,162742,85042
886,11961,162743,85024
887,11981,162767,85001
888,12000,162809,85010
889,12019,162825,85014
890,12038,162765,85039
891,12057,162662,85027
892,12076,162619,85025
893,12095,162676,85025
894,12115,162813,85010
895,12134,162865,85010
896,12153,162828,84986
897,12172,162713,85020
898,12191,162669,85013
899,12210,162727,85052
900,12229,162806,85014
901,12249,162828,84999
902,12268,162765,84979
903,12287,162669,84962
904,12306,162590,84987
905,12325,162575,84990
906,12344,162535,84975
907,12363,162436,84935
908,12383,162404,84906
909,12402,162364,84912
910,12421,162400,84933
911,12440,162463,84968
912,12459,162504,84969
913,12478,162402,84949
914,12497,162347,84927
915,12516,162407,84931
916,12536,162514,84930
917,12555,162646,84962
918,12574,162644,84979
919,12593,162594,84993
920,12612,162546,84955
921,12631,162552,84965
922,12650,162650,84963
923,12670,162756,84982
924,12689,162807,84983
925,12708,162771,84995
926,12727,162630,84981
927,12746,162466,84967
928,12765,162416,84927
929,12784,162505,84955
930,12804,162610,84947
931,12823,162709,84981
932,12842,162734,85007
933,12861,162735,85014
934,12880,162744,85018
935,12899,162759,85010
936,12918,162824,85028
937,12938,162928,85004
938,12957,163014,85026
939,12976,163061,85055
940,12995,163063,85087
941,13014,163034,85075
942,13033,163023,85065
943,13052,163073,85048
944,13072,163092,85037
945,13091,163144,85062
946,13110,163134,85077
947,13129,163069,85078
948,13148,162957,85051
949,13167,162865,85020
950,13186,162867,85013
951,13206,162848,84996
952,13225,162889,85019
953,13244,162962,85050
954,13263,163053,85094
955,13282,163000,85086
956,13301,163012,85079
957,13320,163094,85069
958,13340,163207,85070
959,13359,163298,85099
960,13378,163313,85119
961,13397,163305,85134
962,13416,163298,85146
963,13435,163346,85131
964,13454,163371,85106
965,13474,163412,85106
966,13493,163468,85130
967,13512,163413,85118
968,13531,163253,85118
969,13550,163074,85081
970,13569,162992,85053
971,13588,162971,85043
972,13608,162999,85010
973,13627,162985,85029
974,13646,162997,85052
975,13665,162990,85091
976,13684,162996,85093
977,13703,163084,85087
978,13722,163169,85078
979,13742,163269,85091
980,13761,163310,85093
981,13780,163362,85122
982,13799,163373,85137
983,13818,163373,85149
984,13837,163376,85121
985,13856,163377,85114
986,13876,163438,85095
987,13895,163392,85094
988,13914,163406,85104
989,13933,163358,85122
990,13952,163244,85094
991,13971,163137,85066
992,13990,163030,85015
993,14010,162992,85002
994,14029,163001,84991
995,14048,163049,85022
996,14067,163073,85075
997,14086,163059,85070
998,14105,163093,85063
999,14124,163085,85049
1000,14144,163133,85044
1001,14163,163129,85031
1002,14182,163138,85032
1003,14201,163122,85077
1004,14220,163154,85090
1005,14239,163201,85099
1006,14258,163270,85086
1007,14278,163311,85062
1008,14297,163228,85040
1009,14316,163171,85034
1010,14335,163140,85066
1011,14354,163077,85063
1012,14373,163022,85063
1013,14392,162949,84993
1014,14412,162909,84984
1015,14431,162848,84961
1016,14450,162797,84965
1017,14469,162796,85012
1018,14488,162808,85025
1019,14507,162868,85028
1020,14526,162939,85021
1021,14546,162957,84986
1022,14565,162891,84980
1023,14584,162887,85003
1024,14603,162912,85033
1025,14622,162986,85065
1026,14641,163077,85079
1027,14660,163072,85041
1028,14679,163044,85010
1029,14699,162972,85010
1030,14718,162974,85039
1031,14737,163049,85093
1032,14756,163108,85086
1033,14775,163081,85073
1034,14794,162948,85021
1035,14813,162834,84994
1036,14833,162704,84943
1037,14852,162688,84984
1038,14871,162742,85001
1039,14890,162810,85031
1040,14909,162835,85030
1041,14928,162818,85002
1042,14947,162851,85007
1043,14967,162888,85007
1044,14986,162976,85034
1045,15005,163013,85074
1046,15024,163036,85079
1047,15043,163081,85084
1048,15062,163074,85079
1049,15081,163163,85065
1050,15101,163220,85077
1051,15120,163291,85087
1052,15139,163250,85092
1053,15158,163162,85119
1054,15177,163116,85114
1055,15196,163105,85080
1056,15215,163073,85055
1057,15235,162980,85006
1058,15254,162847,84989
1059,15273,162737,85001
1060,15292,162687,85041
1061,15311,162731,85039
1062,15330,162790,85033
1063,15349,162851,85016
1064,15369,162825,85014
1065,15388,162831,85036
1066,15407,162815,85044
1067,15426,162778,85085
1068,15445,162761,85061
1069,15464,162801,85048
1070,15483,162834,85047
1071,15503,162893,85047
1072,15522,162918,85058
1073,15541,162894,85080
1074,15560,162849,85089
1075,15579,162808,85095
1076,15598,162798,85078
1077,15617,162747,85030
1078,15637,162695,84991
1079,15656,162674,84997
1080,15675,162622,85003
1081,15694,162618,85027
1082,15713,162569,85019
1083,15732,162617,85016
1084,15751,162647,85017
1085,15771,162719,85007
1086,15790,162763,85015
1087,15809,162765,85016
1088,15828,162786,85057
1089,15847,162784,85061
1090,15866,162839,85036
1091,15885,162879,85046
1092,15905,162891,85013
1093,15924,162908,85029
1094,15943,162882,85037
1095,15962,162848,85067
1096,15981,162828,85036
1097,16000,162869,85043
1098,16019,162835,85021
1099,16039,162740,84972
1100,16058,162640,84965
1101,16077,162577,84967
1102,16096,162548,84995
1103,16115,162509,84980
1104,16134,162531,84968
1105,16153,162527,84957
1106,16173,162521,84943
1107,16192,162517,84942
1108,16211,162518,84957
1109,16230,162521,84987
1110,16249,162543,84985
1111,16268,162607,84976
1112,16287,162630,84969
1113,16307,162667,84964
1114,16326,162655,84952
1115,16345,162634,84949
1116,16364,162624,85005
1117,16383,162634,84998
1118,16402,162718,85005
1119,16421,162757,84979
1120,16441,162721,84945
1121,16460,162587,84924
1122,16479,162507,84917
1123,16498,162449,84946
1124,16517,162427,84949
1125,16536,162458,84948
1126,16555,162447,84909
1127,16575,162466,84910
1128,16594,162482,84901
1129,16613,162532,84918
1130,16632,162515,84965
1131,16651,162534,84956
1132,16670,162614,84967
1133,16689,162692,84966
1134,16709,162764,84943
1135,16728,162778,84956
1136,16747,162834,84980
1137,16766,162813,84994
1138,16785,162790,85022
1139,16804,162800,85004
1140,16823,162829,84995
1141,16843,162907,84981
1142,16862,162899,84966
1143,16881,162843,84940
1144,16900,162738,84978
1145,16919,162607,84963
1146,16938,162559,84938
1147,16957,162527,84932
1148,16977,162531,84908
1149,16996,162532,84909
1150,17015,162626,84937
1151,17034,162678,84960
1152,17053,162616,84961
1153,17072,162594,84957
1154,17091,162632,84944
1155,17110,162735,84947
1156,17130,162802,84942
1157,17149,162783,84950
1158,17168,162711,84980
1159,17187,162647,84980
1160,17206,162689,84987
1161,17225,162802,84994
1162,17244,162918,84990
1163,17264,162952,84965
1164,17283,162857,84951
1165,17302,162695,84960
1166,17321,162630,84962
1167,17340,162616,84968
1168,17359,162665,84954
1169,17378,162699,84935
1170,17398,162688,84918
1171,17417,162676,84934
1172,17436,162648,84952
1173,17455,162681,84980
1174,17474,162721,85000
1175,17493,162742,84958
1176,17512,162795,84968
1177,17532,162810,84953
1178,17551,162846,84966
1179,17570,162863,84997
1180,17589,162829,85015
1181,17608,162804,85014
1182,17627,162841,84992
1183,17646,162853,84980
1184,17666,162852,84962
1185,17685,162802,84979
1186,17704,162711,84964
1187,17723,162655,84987
1188,17742,162610,84964
1189,17761,162557,84944
1190,17780,162562,84924
1191,17800,162570,84929
1192,17819,162598,84938
1193,17838,162599,84966
1194,17857,162659,85000
1195,17876,162715,85001
1196,17895,162811,85018
1197,17914,162918,84990
1198,17934,162956,84985
1199,17953,162982,85007
1200,17972,162960,85006
1201,17991,162974,85056
1202,18010,162970,85044
1203,18029,163024,85038
1204,18048,163085,85022
1205,18068,163146,85006
1206,18087,163137,85029
1207,18106,163074,85006
1208,18125,163002,85038
1209,18144,162931,85001
1210,18163,162945,84988
1211,18182,162931,84969
1212,18202,162850,84951
1213,18221,162816,84949
1214,18240,162831,84962
1215,18259,162903,85022
1216,18278,162993,85022
1217,18297,163050,85007
1218,18316,163051,84993
1219,18336,163081,84991
1220,18355,163140,85012
1221,18374,163182,85035
1222,18393,163211,85064
1223,18412,163173,85037
1224,18431,163125,85026
1225,18450,163125,85022
1226,18470,163213,84995
1227,18489,163265,85001
1228,18508,163257,85030
1229,18527,163190,85058
1230,18546,163079,85028
1231,18565,163044,84993
1232,18584,163000,84973
1233,18604,162999,84935
1234,18623,162948,84957
1235,18642,162956,84974
1236,18661,163031,85032
1237,18680,163073,85020
1238,18699,163082,85015
1239,18718,163042,84982
1240,18738,163009,84974
1241,18757,163000,84949
1242,18776,163046,84988
1243,18795,163093,85038
1244,18814,163073,85032
1245,18833,163095,85018
1246,18852,163052,84997
1247,18872,163050,84961
1248,18891,163016,84976
1249,18910,163059,84998
1250,18929,163101,85010
1251,18948,163065,85003
1252,18967,162969,84996
1253,18986,162858,84948
1254,19006,162847,84928
1255,19025,162855,84919
1256,19044,162861,84936
1257,19063,162831,84943
1258,19082,162752,84959
1259,19101,162771,84972
1260,19120,162814,84943
1261,19140,162882,84949
1262,19159,162921,84942
1263,19178,162973,84969
1264,19197,163015,84998
1265,19216,162986,85000
1266,19235,162936,85002
1267,19254,162918,84966
1268,19273,162985,84959
1269,19293,163046,84969
1270,19312,163082,84983
1271,19331,163053,85016
1272,19350,162998,85025
1273,19369,162882,84991
1274,19388,162795,84943
1275,19407,162742,84930
1276,19427,162731,84920
1277,19446,162742,84927
1278,19465,162641,84922
1279,19484,162565,84946
1280,19503,162540,84958
1281,19522,162614,84945
1282,19541,162742,84947
1283,19561,162827,84941
1284,19580,162814,84957
1285,19599,162841,84992
1286,19618,162863,84998
1287,19637,162862,84999
1288,19656,162889,84992
1289,19675,163007,85003
1290,19695,163108,84989
1291,19714,163136,85005
1292,19733,163124,85018
1293,19752,163052,85040
1294,19771,163002,85015
1295,19790,162946,85017
1296,19809,162895,84973
1297,19829,162866,84942
1298,19848,162784,84918
1299,19867,162721,84930
1300,19886,162666,84947
1301,19905,162606,84954
1302,19924,162644,84942
1303,19943,162671,84928
1304,19963,162731,84915
1305,19982,162769,84920
1306,20001,162804,84944
1307,20020,162825,84979
1308,20039,162827,84959
1309,20058,162802,84963
1310,20077,162766,84929
1311,20097,162758,84901
1312,20116,162755,84914
1313,20135,162780,84927
1314,20154,162783,84959
1315,20173,162761,84965
1316,20192,162688,84941
1317,20211,162559,84897
1318,20230,162488,84860
1319,20250,162405,84845
1320,20269,162381,84840
1321,20288,162337,84860
1322,20307,162321,84879
1323,20326,162332,84879
1324,20345,162331,84838
1325,20364,162328,84841
1326,20384,162311,84824
1327,20403,162321,84853
1328,20422,162363,84883
1329,20441,162406,84886
1330,20460,162484,84898
1331,20479,162550,84877
1332,20498,162562,84875
1333,20518,162506,84840
1334,20537,162459,84847
1335,20556,162425,84885
1336,20575,162460,84901
1337,20594,162512,84910
1338,20613,162547,84877
1339,20632,162469,84841
1340,20652,162359,84805
1341,20671,162249,84795
1342,20690,162211,84815
1343,20709,162207,84857
1344,20728,162200,84823
1345,20747,162251,84839
1346,20766,162287,84811
1347,20786,162312,84813
1348,20805,162360,84841
1349,20824,162438,84852
1350,20843,162487,84906
1351,20862,162513,84901
1352,20881,162570,84913
1353,20900,162618,84893
1354,20920,162660,84893
1355,20939,162687,84888
1356,20958,162726,84909
1357,20977,162751,84956
1358,20996,162747,84949
1359,21015,162796,84963
1360,21034,162813,84936
1361,21054,162767,84912
1362,21073,162667,84858
1363,21092,162558,84861
1364,21111,162493,84893
1365,21130,162414,84853
1366,21149,162392,84880
1367,21168,162428,84857
1368,21188,162463,84871
1369,21207,162483,84848
1370,21226,162480,84858
1371,21245,162471,84898
1372,21264,162482,84904
1373,21283,162520,84910
1374,21302,162586,84910
1375,21322,162690,84884
1376,21341,162703,84885
1377,21360,162708,84898
1378,21379,162666,84937
1379,21398,162694,84962
1380,21417,162751,84958
1381,21436,162764,84931
1382,21456,162790,84922
1383,21475,162704,84876
1384,21494,162633,84880
1385,21513,162574,84899
1386,21532,162566,84908
1387,21551,162538,84903
1388,21570,162529,84862
1389,21589,162547,84862
1390,21609,162570,84851
1391,21628,162601,84874
1392,21647,162617,84913
1393,21666,162670,84930
1394,21685,162693,84928
1395,21704,162753,84917
1396,21723,162835,84914
1397,21743,162835,84888
1398,21762,162825,84913
1399,21781,162790,84937
1400,21800,162814,84946
1401,21819,162829,84946
1402,21838,162875,84948
1403,21857,162906,84946
1404,21877,162889,84906
1405,21896,162840,84894
1406,21915,162715,84893
1407,21934,162584,84887
1408,21953,162494,84866
1409,21972,162466,84843
1410,21991,162514,84835
1411,22011,162544,84822
1412,22030,162516,84838
1413,22049,162489,84839
1414,22068,162441,84873
1415,22087,162436,84863
1416,22106,162521,84883
1417,22125,162621,84864
1418,22145,162685,84861
1419,22164,162689,84867
1420,22183,162665,84873
1421,22202,162640,84909
1422,22221,162600,84903
1423,22240,162619,84884
1424,22259,162650,84881
1425,22279,162696,84878
1426,22298,162741,84867
1427,22317,162673,84878
1428,22336,162567,84893
1429,22355,162459,84866
1430,22374,162401,84850
1431,22393,162400,84817
1432,22413,162408,84806
1433,22432,162324,84782
1434,22451,162235,84790
1435,22470,162185,84829
1436,22489,162166,84817
1437,22508,162232,84830
1438,22527,162255,84821
1439,22547,162298,84795
1440,22566,162288,84805
1441,22585,162342,84810
1442,22604,162377,84878
1443,22623,162484,84885
1444,22642,162582,84908
1445,22661,162612,84889
1446,22681,162663,84863
1447,22700,162666,84861
1448,22719,162627,84879
1449,22738,162603,84899
1450,22757,162560,84906
1451,22776,162529,84872
1452,22795,162481,84847
1453,22815,162466,84823
1454,22834,162428,84808
1455,22853,162408,84832
1456,22872,162416,84865
1457,22891,162457,84885
1458,22910,162481,84890
1459,22929,162502,84874
1460,22948,162548,84870
1461,22968,162570,84867
1462,22987,162642,84901
1463,23006,162670,84907
1464,23025,162740,84933
1465,23044,162742,84952
1466,23063,162781,84937
1467,23082,162826,84916
1468,23102,162839,84911
1469,23121,162903,84938
1470,23140,162962,84960
1471,23159,162995,84998
1472,23178,162973,84980
1473,23197,162904,84926
1474,23216,162839,84902
1475,23236,162760,84883
1476,23255,162742,84880
1477,23274,162704,84890
1478,23293,162707,84934
1479,23312,162700,84922
1480,23331,162762,84923
1481,23350,162841,84902
1482,23370,162879,84907
1483,23389,162888,84922
1484,23408,162852,84938
1485,23427,162875,84978
1486,23446,162916,84966
1487,23465,162966,84962
1488,23484,162980,84940
1489,23504,163013,84945
1490,23523,163012,84942
1491,23542,162987,84960
1492,23561,163001,85013
1493,23580,162983,84980
1494,23599,163007,84960
1495,23618,162971,84957
1496,23638,162873,84904
1497,23657,162786,84877
1498,23676,162734,84896
1499,23695,162706,84917
1500,23714,162662,84912
1501,23733,162657,84909
1502,23752,162671,84887
1503,23772,162717,84877
1504,23791,162772,84896
1505,23810,162816,84903
1506,23829,162828,84946
1507,23848,162840,84939
1508,23867,162886,84941
1509,23886,162914,84932
1510,23906,162937,84916
1511,23925,162918,84908
1512,23944,162863,84915
1513,23963,162801,84931
1514,23982,162786,84914
1515,24001,162814,84943
1516,24020,162835,84929
1517,24040,162840,84892
1518,24059,162727,84867
1519,24078,162594,84851
1520,24097,162471,84856
1521,24116,162410,84848
1522,24135,162381,84851
1523,24154,162428,84843
1524,24174,162513,84827
1525,24193,162504,84825
1526,24212,162501,84840
1527,24231,162454,84856
1528,24250,162408,84868
1529,24269,162437,84875
1530,24288,162526,84862
1531,24307,162667,84864
1532,24327,162695,84846
1533,24346,162673,84856
1534,24365,162584,84866
1535,24384,162528,84878
1536,24403,162544,84886
1537,24422,162628,84883
1538,24441,162738,84886
1539,24461,162777,84870
1540,24480,162790,84885
1541,24499,162706,84871
1542,24518,162618,84874
1543,24537,162615,84848
1544,24556,162621,84843
1545,24575,162697,84830
1546,24595,162694,84824
1547,24614,162677,84856
1548,24633,162667,84862
1549,24652,162685,84901
1550,24671,162706,84900
1551,24690,162762,84892
1552,24709,162883,84899
1553,24729,162956,84883
1554,24748,163002,84906
1555,24767,162953,84933
1556,24786,162916,84938
1557,24805,162884,84921
1558,24824,162896,84934
1559,24843,162986,84927
1560,24863,163071,84931
1561,24882,163105,84928
1562,24901,163092,84944
1563,24920,163011,84950
1564,24939,162859,84923
1565,24958,162757,84891
1566,24977,162691,84864
1567,24997,162705,84846
1568,25016,162675,84852
1569,25035,162642,84871
1570,25054,162643,84908
1571,25073,162642,84905
1572,25092,162669,84908
1573,25111,162719,84917
1574,25131,162751,84905
1575,25150,162796,84904
1576,25169,162868,84936
1577,25188,162905,84963
1578,25207,162930,84975
1579,25226,162940,84974
1580,25245,162945,84956
1581,25265,163017,84954
1582,25284,163056,84967
1583,25303,163090,84964
1584,25322,163064,84998
1585,25341,163063,85003
1586,25360,163051,84978
1587,25379,162959,84927
1588,25399,162866,84887
1589,25418,162751,84869
1590,25437,162696,84896
1591,25456,162694,84904
1592,25475,162704,84889
1593,25494,162752,84924
1594,25513,162812,84920
1595,25532,162880,84916
1596,25552,162851,84881
1597,25571,162851,84907
1598,25590,162907,84937
1599,25609,162940,84970
1600,25628,162956,84962
1601,25647,162952,84949
1602,25666,163003,84933
1603,25686,163008,84917
1604,25705,162995,84942
1605,25724,162922,84951
1606,25743,162848,84978
1607,25762,162810,84973
1608,25781,162860,84954
1609,25800,162859,84909
1610,25820,162768,84880
1611,25839,162634,84866
1612,25858,162502,84857
1613,25877,162431,84882
1614,25896,162412,84867
1615,25915,162502,84878
1616,25934,162623,84866
1617,25954,162688,84844
1618,25973,162736,84881
1619,25992,162755,84917
1620,26011,162766,84933
1621,26030,162740,84918
1622,26049,162754,84936
1623,26068,162856,84922
1624,26088,162956,84913
1625,26107,163031,84924
1626,26126,163023,84936
1627,26145,163009,84966
1628,26164,162921,84942
1629,26183,162897,84943
1630,26202,162891,84902
1631,26222,162916,84894
1632,26241,162920,84888
1633,26260,162869,84886
1634,26279,162693,84870
1635,26298,162511,84837
1636,26317,162394,84826
1637,26336,162342,84809
1638,26356,162417,84791
1639,26375,162497,84803
1640,26394,162596,84821
1641,26413,162596,84871
1642,26432,162531,84854
1643,26451,162485,84858
1644,26470,162455,84844
1645,26490,162544,84820
1646,26509,162614,84831
1647,26528,162645,84842
1648,26547,162662,84865
1649,26566,162640,84878
1650,26585,162586,84867
1651,26604,162539,84850
1652,26624,162586,84845
1653,26643,162658,84842
1654,26662,162703,84842
1655,26681,162595,84850
1656,26700,162485,84838
1657,26719,162350,84804
1658,26738,162250,84783
1659,26757,162278,84771
1660,26777,162284,84747
1661,26796,162302,84779
1662,26815,162299,84810
1663,26834,162263,84810
1664,26853,162226,84824
1665,26872,162215,84808
1666,26891,162315,84796
1667,26911,162397,84795
1668,26930,162423,84814
1669,26949,162421,84832
1670,26968,162383,84860
1671,26987,162368,84848
1672,27006,162397,84846
1673,27025,162523,84837
1674,27045,162591,84839
1675,27064,162650,84843
1676,27083,162644,84871
1677,27102,162640,84890
1678,27121,162546,84848
1679,27140,162499,84822
1680,27159,162460,84804
1681,27179,162456,84777
1682,27198,162471,84804
1683,27217,162480,84812
1684,27236,162477,84850
1685,27255,162446,84839
1686,27274,162489,84829
1687,27293,162566,84833
1688,27313,162633,84841
1689,27332,162742,84851
1690,27351,162793,84867
1691,27370,162828,84911
1692,27389,162841,84919
1693,27408,162904,84927
1694,27427,162979,84906
1695,27447,163043,84885
1696,27466,163021,84901
1697,27485,163014,84912
1698,27504,163054,84960
1699,27523,163071,84947
1700,27542,163092,84938
1701,27561,163047,84906
1702,27581,162956,84863
1703,27600,162852,84855
1704,27619,162788,84847
1705,27638,162768,84886
1706,27657,162758,84890
1707,27676,162750,84889
1708,27695,162765,84880
1709,27715,162763,84847
1710,27734,162756,84862
1711,27753,162796,84897
1712,27772,162787,84928
1713,27791,162775,84927
1714,27810,162806,84937
1715,27829,162870,84937
1716,27849,162965,84908
1717,27868,162962,84908
1718,27887,162918,84908
1719,27906,162861,84957
1720,27925,162891,84963
1721,27944,162983,84971
1722,27963,163096,84975
1723,27983,163161,84950
1724,28002,163101,84919
1725,28021,162966,84886
1726,28040,162831,84917
1727,28059,162738,84911
1728,28078,162692,84903
1729,28097,162729,84879
1730,28116,162728,84869
1731,28136,162678,84835
1732,28155,162579,84858
1733,28174,162531,84898
1734,28193,162495,84914
1735,28212,162512,84915
1736,28231,162566,84916
1737,28250,162650,84896
1738,28270,162699,84894
1739,28289,162676,84905
1740,28308,162634,84929
1741,28327,162562,84953
1742,28346,162544,84947
1743,28365,162602,84914
1744,28384,162686,84899
1745,28404,162721,84890
1746,28423,162735,84903
1747,28442,162647,84900
1748,28461,162539,84886
1749,28480,162428,84861
1750,28499,162387,84827
1751,28518,162391,84817
1752,28538,162363,84791
1753,28557,162350,84794
1754,28576,162376,84836
1755,28595,162414,84860
1756,28614,162440,84856
1757,28633,162498,84870
1758,28652,162565,84850
1759,28672,162602,84849
1760,28691,162646,84860
1761,28710,162671,84879
1762,28729,162705,84917
1763,28748,162669,84906
1764,28767,162685,84888
1765,28786,162711,84881
1766,28806,162741,84864
1767,28825,162755,84878
1768,28844,162773,84897
1769,28863,162800,84920
1770,28882,162765,84904
1771,28901,162682,84881
1772,28920,162583,84831
1773,28940,162548,84818
1774,28959,162508,84819
1775,28978,162479,84825
1776,28997,162480,84849
1777,29016,162470,84850
1778,29035,162499,84847
1779,29054,162495,84824
1780,29074,162569,84813
1781,29093,162623,84827
1782,29112,162687,84850
1783,29131,162709,84896
1784,29150,162712,84879
1785,29169,162720,84895
1786,29188,162749,84873
1787,29208,162785,84856
1788,29227,162836,84862
1789,29246,162867,84877
1790,29265,162849,84904
1791,29284,162838,84920
1792,29303,162890,84917
1793,29322,162945,84902
1794,29342,163018,84874
1795,29361,162901,84848
1796,29380,162750,84828
1797,29399,162592,84819
1798,29418,162520,84839
1799,29437,162531,84828
1800,29456,162564,84808
1801,29475,162651,84804
1802,29495,162622,84781
1803,29514,162592,84802
1804,29533,162587,84836
1805,29552,162652,84860
1806,29571,162715,84868
1807,29590,162773,84846
1808,29609,162829,84859
1809,29629,162853,84847
1810,29648,162891,84860
1811,29667,162892,84878
1812,29686,162902,84897
1813,29705,162951,84896
1814,29724,162991,84894
1815,29743,163060,84891
1816,29763,163091,84874
1817,29782,163158,84894
1818,29801,163137,84902
1819,29820,163059,84895
1820,29839,162952,84879
1821,29858,162919,84855
1822,29877,162947,84839
1823,29897,162974,84824
1824,29916,162915,84824
1825,29935,162894,84847
1826,29954,162938,84885
1827,29973,162957,84890
1828,29992,163047,84893
