sample_index,timestamp_ms,ir,red
0,0,160394,86818
1,0,160458,86822
2,1,160450,86791
3,1,160374,86748
4,1,160415,86761
5,1,160491,86797
6,2,160606,86828
7,2,160657,86881
8,2,160710,86889
9,2,160784,86923
10,2,160871,86934
11,2,161022,86955
12,2,161048,86936
13,3,161067,86933
14,3,161087,86994
15,3,161135,87009
16,3,161199,87019
17,3,161305,87015
18,3,161423,87021
19,3,161446,87024
20,4,161477,87008
21,4,161430,87016
22,4,161386,87013
23,4,161358,86997
24,4,161431,86996
25,4,161494,86990
26,4,161556,86963
27,4,161470,86949
28,4,161380,86932
29,4,161331,86901
30,5,161290,86888
31,5,161315,86865
32,5,161254,86794
33,5,161148,86753
34,5,161050,86728
35,5,160941,86693
36,5,160852,86710
37,5,160729,86654
38,6,160683,86622
39,6,160652,86569
40,6,160658,86522
41,6,160641,86502
42,6,160640,86500
43,6,160611,86498
44,6,160606,86505
45,6,160660,86510
46,7,160726,86509
47,7,160853,86500
48,7,160885,86488
49,7,160888,86498
50,7,160875,86503
51,7,160873,86535
52,7,160876,86542
53,7,160886,86526
54,7,160898,86519
55,8,160956,86501
56,8,160956,86500
57,8,160948,86498
58,8,160915,86545
59,8,160899,86551
60,8,160973,86564
61,8,161026,86571
62,8,161098,86588
63,9,161155,86616
64,9,161220,86654
65,9,161339,86752
66,9,161448,86805
67,9,161569,86848
68,9,161608,86873
69,9,161622,86860
70,9,161575,86881
71,9,161592,86920
72,9,161562,86949
73,9,161480,86938
74,10,161446,86943
75,10,161436,86925
76,10,161510,86927
77,11,161561,86925
78,11,161582,86948
79,11,161534,86938
80,11,161515,86951
81,11,161540,86964
82,11,161606,86961
83,11,161683,86937
84,11,161670,86920
85,11,161669,86916
86,12,161649,86937
87,12,161635,86956
88,12,161620,86934
89,12,161671,86921
90,12,161672,86891
91,12,161635,86831
92,12,161580,86820
93,12,161548,86809
94,12,161509,86827
95,12,161483,86797
96,12,161473,86767
97,12,161470,86736
98,12,161523,86714
99,13,161484,86668
100,13,161418,86644
101,13,161371,86661
102,13,161376,86645
103,13,161441,86671
104,13,161450,86629
105,13,161470,86584
106,13,161348,86552
107,13,161240,86554
108,13,161146,86569
109,13,161136,86568
110,13,161135,86560
111,13,161115,86501
112,14,161127,86481
113,14,161130,86448
114,14,161114,86454
115,14,161024,86418
116,14,160944,86437
117,14,160926,86421
118,14,160936,86387
119,14,160996,86362
120,14,160986,86335
121,14,160922,86344
122,14,160878,86346
123,14,160909,86385
124,14,160923,86401
125,15,160972,86413
126,15,161018,86400
127,15,161065,86427
128,15,161109,86450
129,15,161135,86482
130,15,161174,86535
131,15,161216,86560
132,15,161311,86570
133,15,161404,86586
134,15,161496,86607
135,15,161502,86603
136,15,161570,86635
137,15,161650,86708
138,16,161727,86703
139,16,161736,86706
140,16,161724,86671
141,16,161737,86661
142,16,161703,86647
143,16,161638,86649
144,16,161526,86676
145,16,161412,86656
146,16,161371,86655
147,16,161380,86634
148,16,161446,86644
149,16,161498,86623
150,16,161501,86658
151,17,161523,86670
152,17,161542,86698
153,17,161593,86733
154,17,161718,86747
155,17,161839,86756
156,17,161932,86752
157,17,162031,86775
158,17,162100,86813
159,17,162159,86897
160,17,162170,86872
161,17,162205,86855
162,17,162208,86824
163,17,162241,86803
164,17,162250,86795
165,18,162276,86794
166,18,162253,86804
167,18,162191,86772
168,18,162176,86764
169,18,162189,86736
170,18,162233,86714
171,18,162198,86687
172,18,162173,86683
173,18,162190,86715
174,18,162208,86735
175,18,162280,86737
176,18,162274,86715
177,18,162239,86669
178,18,162130,86603
179,19,162038,86593
180,19,161954,86596
181,19,161894,86615
182,19,161853,86567
183,19,161855,86553
184,19,161886,86552
185,19,161949,86547
186,19,161991,86558
187,19,162012,86564
188,19,161988,86585
189,19,161991,86595
190,19,162036,86577
191,19,162062,86556
192,19,162123,86556
193,19,162150,86566
194,20,162135,86587
195,20,162069,86631
196,20,162057,86630
197,20,162101,86658
198,20,162145,86642
199,20,162251,86646
200,20,162262,86643
201,20,162246,86656
202,20,162199,86686
203,20,162303,86730
204,20,162387,86774
205,20,162452,86776
206,20,162513,86754
207,20,162517,86739
208,20,162497,86761
209,20,162469,86780
210,21,162482,86845
211,21,162548,86855
212,21,162563,86842
213,21,162515,86819
214,21,162457,86794
215,21,162377,86805
216,21,162291,86808
217,21,162257,86873
218,21,162292,86894
219,21,162373,86905
220,21,162460,86906
221,21,162557,86906
222,21,162611,86927
223,21,162623,86931
224,21,162637,86977
225,22,162642,86963
226,22,162655,86970
227,22,162665,86926
228,22,162712,86913
229,22,162743,86887
230,22,162756,86901
231,22,162722,86925
232,22,162660,86903
233,22,162618,86885
234,22,162631,86867
235,22,162697,86841
236,22,162732,86852
237,22,162727,86858
238,22,162635,86855
239,23,162637,86891
240,23,162669,86879
241,23,162712,86876
242,23,162723,86863
243,23,162752,86841
244,23,162810,86854
245,23,162835,86862
246,23,162879,86876
247,23,162822,86862
248,23,162755,86806
249,23,162636,86728
250,23,162500,86662
251,23,162354,86630
252,23,162256,86603
253,23,162184,86603
254,24,162130,86601
255,24,162121,86594
256,24,162151,86579
257,24,162196,86563
258,24,162229,86584
259,24,162290,86639
260,24,162351,86680
261,24,162400,86725
262,24,162423,86727
263,35,162486,86733
264,54,162568,86786
265,74,162680,86833
266,93,162769,86868
267,112,162859,86935
268,131,162896,86990
269,150,162899,87006
270,169,162943,87016
271,188,162981,87012
272,208,163031,87012
273,227,163059,87023
274,246,163107,87046
275,265,163179,87115
276,284,163263,87137
277,303,163343,87162
278,322,163399,87157
279,342,163491,87159
280,361,163531,87169
281,380,163582,87160
282,399,163583,87203
283,418,163601,87225
284,437,163567,87219
285,456,163555,87217
286,475,163612,87248
287,495,163694,87279
288,514,163805,87336
289,533,163764,87327
290,552,163634,87296
291,571,163538,87274
292,590,163550,87253
293,609,163599,87224
294,629,163588,87191
295,648,163568,87168
296,667,163484,87126
297,686,163401,87119
298,705,163289,87056
299,724,163247,87015
300,743,163139,86943
301,763,163087,86893
302,782,163017,86881
303,801,163012,86882
304,820,163031,86921
305,839,163009,86896
306,858,162964,86868
307,877,162940,86809
308,897,162961,86794
309,916,163023,86790
310,935,163017,86805
311,954,162985,86821
312,973,162994,86812
313,992,162985,86802
314,1011,162996,86743
315,1030,163018,86712
316,1050,162966,86680
317,1069,162942,86660
318,1088,162837,86637
319,1107,162684,86623
320,1126,162542,86581
321,1145,162441,86572
322,1164,162406,86561
323,1184,162429,86553
324,1203,162432,86561
325,1222,162388,86566
326,1241,162342,86586
327,1260,162285,86592
328,1279,162318,86602
329,1298,162412,86618
330,1318,162482,86634
331,1337,162550,86657
332,1356,162551,86693
333,1375,162591,86716
334,1394,162594,86702
335,1413,162614,86717
336,1432,162642,86718
337,1452,162738,86728
338,1471,162765,86742
339,1490,162775,86762
340,1509,162724,86791
341,1528,162688,86804
342,1547,162737,86829
343,1566,162773,86828
344,1586,162886,86848
345,1605,162990,86880
346,1624,163104,86936
347,1643,163123,86954
348,1662,163123,86953
349,1681,163132,86960
350,1700,163153,86945
351,1719,163276,86938
352,1739,163343,86940
353,1758,163394,86959
354,1777,163316,86969
355,1796,163206,86969
356,1815,163102,86963
357,1834,163089,86940
358,1853,163106,86921
359,1873,163100,86889
360,1892,163104,86905
361,1911,163104,86896
362,1930,163074,86917
363,1949,163027,86883
364,1968,162972,86824
365,1987,162921,86797
366,2007,162899,86763
367,2026,162904,86756
368,2045,162824,86737
369,2064,162727,86737
370,2083,162600,86682
371,2102,162606,86656
372,2121,162595,86600
373,2141,162556,86560
374,2160,162504,86507
375,2179,162461,86512
376,2198,162426,86525
377,2217,162418,86519
378,2236,162437,86508
379,2255,162447,86488
380,2275,162495,86465
381,2294,162498,86486
382,2313,162569,86520
383,2332,162639,86611
384,2351,162688,86653
385,2370,162698,86661
386,2389,162688,86657
387,2409,162734,86651
388,2428,162726,86620
389,2447,162623,86589
390,2466,162442,86567
391,2485,162243,86559
392,2504,162133,86563
393,2523,162148,86566
394,2542,162171,86560
395,2562,162152,86537
396,2581,162104,86523
397,2600,162077,86510
398,2619,162020,86510
399,2638,161967,86483
400,2657,161916,86457
401,2676,161930,86430
402,2696,161926,86383
403,2715,161910,86373
404,2734,161888,86357
405,2753,161811,86361
406,2772,161730,86327
407,2791,161722,86320
408,2810,161699,86281
409,2830,161670,86259
410,2849,161645,86239
411,2868,161573,86244
412,2887,161535,86277
413,2906,161508,86289
414,2925,161551,86315
415,2944,161646,86344
416,2964,161801,86373
417,2983,161862,86374
418,3002,161895,86369
419,3021,161868,86431
420,3040,161873,86445
421,3059,161911,86456
422,3078,161982,86473
423,3098,162148,86496
424,3117,162232,86514
425,3136,162273,86517
426,3155,162238,86523
427,3174,162096,86476
428,3193,161969,86446
429,3212,161882,86415
430,3231,161870,86389
431,3251,161785,86349
432,3270,161692,86310
433,3289,161569,86288
434,3308,161460,86259
435,3327,161398,86211
436,3346,161348,86188
437,3365,161327,86135
438,3385,161306,86107
439,3404,161267,86066
440,3423,161230,86049
441,3442,161171,86061
442,3461,161117,85987
443,3480,161108,85975
444,3499,161114,85945
445,3519,161119,85919
446,3538,161106,85904
447,3557,161119,85916
448,3576,161085,85952
449,3595,161092,85925
450,3614,161125,85910
451,3633,161168,85916
452,3653,161242,85932
453,3672,161264,85931
454,3691,161280,85979
455,3710,161287,86036
456,3729,161294,86030
457,3748,161317,86050
458,3767,161363,86043
459,3787,161430,86033
460,3806,161418,86040
461,3825,161448,86073
462,3844,161423,86078
463,3863,161333,86071
464,3882,161214,86049
465,3901,161043,86007
466,3920,160925,85964
467,3940,160852,85942
468,3959,160843,85971
469,3978,160840,86017
470,3997,160888,86058
471,4016,160869,86078
472,4035,160908,86066
473,4054,160967,86088
474,4074,161035,86125
475,4093,161116,86186
476,4112,161188,86222
477,4131,161249,86283
478,4150,161285,86303
479,4169,161340,86308
480,4188,161440,86345
481,4208,161548,86349
482,4227,161649,86394
483,4246,161733,86443
484,4265,161787,86521
485,4284,161850,86531
486,4303,161933,86542
487,4322,162034,86544
488,4342,162083,86521
489,4361,162054,86486
490,4380,161993,86474
491,4399,161997,86542
492,4418,162066,86558
493,4437,162126,86563
494,4456,162175,86519
495,4476,162236,86493
496,4495,162201,86451
497,4514,162199,86480
498,4533,162236,86494
499,4552,162176,86500
500,4571,162070,86461
501,4590,161933,86425
502,4609,161834,86371
503,4629,161704,86313
504,4648,161629,86301
505,4667,161553,86293
506,4686,161484,86302
507,4705,161418,86268
508,4724,161400,86259
509,4743,161413,86264
510,4763,161458,86269
511,4782,161498,86289
512,4801,161485,86281
513,4820,161463,86302
514,4839,161441,86304
515,4858,161523,86358
516,4877,161614,86348
517,4897,161667,86346
518,4916,161665,86343
519,4935,161679,86367
520,4954,161673,86387
521,4973,161586,86347
522,4992,161583,86335
523,5011,161603,86329
524,5031,161697,86330
525,5050,161756,86349
526,5069,161779,86369
527,5088,161788,86407
528,5107,161813,86442
529,5126,161816,86442
530,5145,161836,86409
531,5164,161894,86437
532,5184,161925,86449
533,5203,161995,86484
534,5222,162015,86516
535,5241,161995,86511
536,5260,161923,86487
537,5279,161789,86471
538,5298,161768,86440
539,5318,161710,86429
540,5337,161638,86434
541,5356,161598,86468
542,5375,161587,86494
543,5394,161581,86472
544,5413,161649,86476
545,5432,161699,86486
546,5452,161758,86489
547,5471,161819,86533
548,5490,161878,86575
549,5509,161940,86610
550,5528,161989,86603
551,5547,162022,86612
552,5566,162081,86623
553,5586,162163,86626
554,5605,162217,86634
555,5624,162264,86631
556,5643,162240,86664
557,5662,162242,86666
558,5681,162290,86664
559,5700,162375,86670
560,5720,162474,86654
561,5739,162506,86657
562,5758,162530,86685
563,5777,162527,86696
564,5796,162534,86707
565,5815,162578,86718
566,5834,162636,86728
567,5853,162684,86713
568,5873,162676,86689
569,5892,162661,86671
570,5911,162603,86663
571,5930,162534,86642
572,5949,162400,86599
573,5968,162259,86572
574,5987,162134,86519
575,6007,162080,86502
576,6026,162041,86469
577,6045,162013,86490
578,6064,161994,86511
579,6083,161955,86487
580,6102,161933,86465
581,6121,161925,86404
582,6141,161960,86376
583,6160,161923,86332
584,6179,161908,86324
585,6198,161909,86340
586,6217,161908,86333
587,6236,161901,86302
588,6255,161912,86292
589,6274,161939,86289
590,6294,161936,86262
591,6313,161921,86257
592,6332,161914,86269
593,6351,161889,86287
594,6370,161872,86253
595,6389,161918,86265
596,6408,161943,86261
597,6428,162016,86264
598,6447,162042,86284
599,6466,162108,86334
600,6485,162130,86375
601,6504,162122,86382
602,6523,162186,86405
603,6542,162269,86408
604,6561,162387,86444
605,6581,162458,86444
606,6600,162494,86471
607,6619,162425,86458
608,6638,162267,86444
609,6657,162090,86431
610,6676,161978,86364
611,6695,161889,86314
612,6715,161858,86313
613,6734,161837,86311
614,6753,161836,86326
615,6772,161829,86374
616,6791,161846,86368
617,6810,161877,86387
618,6829,161922,86389
619,6849,162034,86408
620,6868,162064,86445
621,6887,162119,86475
622,6906,162138,86539
623,6925,162142,86563
624,6944,162158,86570
625,6963,162160,86548
626,6982,162212,86541
627,7002,162213,86516
628,7021,162228,86550
629,7040,162230,86574
630,7059,162228,86588
631,7078,162241,86587
632,7097,162258,86607
633,7116,162324,86609
634,7136,162397,86595
635,7155,162414,86589
636,7174,162415,86570
637,7193,162361,86591
638,7212,162358,86569
639,7231,162417,86568
640,7250,162460,86523
641,7270,162504,86509
642,7289,162399,86434
643,7308,162214,86397
644,7327,162015,86364
645,7346,161852,86327
646,7365,161742,86300
647,7384,161650,86234
648,7403,161658,86217
649,7423,161635,86175
650,7442,161596,86173
651,7461,161585,86189
652,7480,161588,86196
653,7499,161591,86184
654,7518,161612,86158
655,7537,161649,86107
656,7557,161688,86094
657,7576,161722,86107
658,7595,161705,86112
659,7614,161692,86141
660,7633,161688,86156
661,7652,161703,86135
662,7671,161726,86117
663,7690,161808,86103
664,7710,161808,86096
665,7729,161833,86130
666,7748,161859,86149
667,7767,161861,86188
668,7786,161907,86221
669,7805,161936,86214
670,7824,162029,86230
671,7844,162090,86220
672,7863,162108,86235
673,7882,162119,86234
674,7901,162129,86276
675,7920,162117,86261
676,7939,162161,86291
677,7958,162159,86303
678,7978,162074,86272
679,7997,161930,86241
680,8016,161733,86219
681,8035,161572,86230
682,8054,161469,86224
683,8073,161436,86239
684,8092,161468,86221
685,8111,161513,86254
686,8131,161537,86239
687,8150,161522,86255
688,8169,161521,86275
689,8188,161501,86296
690,8207,161510,86296
691,8226,161545,86302
692,8245,161599,86305
693,8265,161645,86307
694,8284,161633,86327
695,8303,161596,86335
696,8322,161591,86351
697,8341,161570,86372
698,8360,161613,86358
699,8379,161628,86368
700,8399,161643,86360
701,8418,161697,86376
702,8437,161780,86417
703,8456,161867,86465
704,8475,161893,86448
705,8494,161859,86425
706,8513,161833,86381
707,8532,161921,86400
708,8552,162023,86429
709,8571,162142,86459
710,8590,162186,86480
711,8609,162182,86493
712,8628,162117,86476
713,8647,162045,86442
714,8666,161920,86394
715,8686,161775,86358
716,8705,161625,86299
717,8724,161549,86305
718,8743,161514,86332
719,8762,161471,86290
720,8781,161457,86272
721,8800,161461,86235
722,8820,161482,86211
723,8839,161463,86173
724,8858,161445,86175
725,8877,161415,86201
726,8896,161429,86218
727,8915,161449,86243
728,8934,161507,86218
729,8954,161548,86181
730,8973,161566,86161
731,8992,161547,86176
732,9011,161565,86211
733,9030,161547,86236
734,9049,161558,86217
735,9068,161622,86220
736,9087,161671,86194
737,9107,161687,86169
738,9126,161680,86194
739,9145,161629,86201
740,9164,161643,86212
741,9183,161610,86204
742,9202,161675,86239
743,9221,161713,86200
744,9241,161714,86206
745,9260,161751,86275
746,9279,161793,86281
747,9298,161807,86329
748,9317,161713,86307
749,9336,161565,86287
750,9355,161428,86261
751,9375,161319,86273
752,9394,161238,86247
753,9413,161116,86250
754,9432,161064,86291
755,9451,161033,86311
756,9470,161062,86342
757,9489,161092,86331
758,9509,161157,86335
759,9528,161166,86358
760,9547,161237,86395
761,9566,161328,86450
762,9585,161396,86467
763,9604,161452,86482
764,9623,161505,86479
765,9642,161620,86527
766,9662,161779,86546
767,9681,161854,86579
768,9700,161870,86600
769,9719,161896,86609
770,9738,161908,86585
771,9757,161966,86570
772,9776,162016,86529
773,9796,162047,86479
774,9815,162091,86490
775,9834,162132,86510
776,9853,162235,86539
777,9872,162263,86508
778,9891,162286,86488
779,9910,162302,86466
780,9930,162352,86419
781,9949,162394,86397
782,9968,162411,86379
783,9987,162362,86378
784,10006,162299,86326
785,10025,162141,86260
786,10044,161897,86162
787,10064,161716,86070
788,10083,161504,86012
789,10102,161389,85962
790,10121,161311,85961
791,10140,161286,85957
792,10159,161301,85979
793,10178,161348,85966
794,10197,161409,86003
795,10217,161470,86016
796,10236,161537,86074
797,10255,161586,86108
798,10274,161634,86171
799,10293,161682,86178
800,10312,161736,86173
801,10331,161766,86156
802,10351,161759,86136
803,10370,161764,86143
804,10389,161729,86140
805,10408,161738,86181
806,10427,161748,86194
807,10446,161822,86234
808,10465,161901,86248
809,10485,161993,86282
810,10504,162047,86307
811,10523,162120,86346
812,10542,162171,86415
813,10561,162227,86456
814,10580,162277,86485
815,10599,162367,86479
816,10618,162458,86492
817,10638,162484,86493
818,10657,162509,86504
819,10676,162504,86505
820,10695,162393,86500
821,10714,162176,86456
822,10733,162019,86410
823,10752,161892,86388
824,10772,161839,86346
825,10791,161781,86351
826,10810,161758,86353
827,10829,161735,86374
828,10848,161745,86369
829,10867,161838,86390
830,10886,161888,86382
831,10906,161992,86392
832,10925,162019,86416
833,10944,162103,86449
834,10963,162161,86515
835,10982,162220,86539
836,11001,162251,86565
837,11020,162251,86539
838,11039,162305,86519
839,11059,162332,86507
840,11078,162382,86524
841,11097,162384,86538
842,11116,162430,86585
843,11135,162530,86584
844,11154,162628,86582
845,11173,162707,86572
846,11193,162766,86542
847,11212,162759,86542
848,11231,162737,86521
849,11250,162739,86548
850,11269,162734,86554
851,11288,162821,86590
852,11307,162953,86608
853,11327,163045,86581
854,11346,163019,86550
855,11365,162811,86476
856,11384,162559,86438
857,11403,162347,86394
858,11422,162194,86351
859,11441,162148,86318
860,11460,162147,86290
861,11480,162161,86273
862,11499,162182,86285
863,11518,162198,86329
864,11537,162209,86376
865,11556,162214,86380
866,11575,162295,86411
867,11594,162424,86446
868,11614,162473,86439
869,11633,162472,86473
870,11652,162457,86489
871,11671,162414,86509
872,11690,162368,86503
873,11709,162395,86497
874,11728,162413,86487
875,11748,162480,86483
876,11767,162471,86498
877,11786,162500,86508
878,11805,162521,86533
879,11824,162489,86500
880,11843,162478,86504
881,11862,162482,86477
882,11882,162558,86444
883,11901,162573,86472
884,11920,162631,86507
885,11939,162696,86552
886,11958,162732,86568
887,11977,162761,86572
888,11996,162750,86515
889,12015,162681,86478
890,12035,162489,86397
891,12054,162288,86369
892,12073,162084,86342
893,12092,161911,86351
894,12111,161812,86349
895,12130,161848,86314
896,12149,161886,86299
897,12169,161907,86307
898,12188,161925,86355
899,12207,161997,86415
900,12226,162179,86521
901,12245,162362,86563
902,12264,162469,86578
903,12283,162469,86548
904,12303,162488,86536
905,12322,162467,86493
906,12341,162434,86467
907,12360,162340,86445
908,12379,162252,86396
909,12398,162294,86407
910,12417,162379,86402
911,12437,162524,86426
912,12456,162585,86449
913,12475,162599,86448
914,12494,162580,86481
915,12513,162530,86442
916,12532,162532,86433
917,12551,162529,86407
918,12570,162550,86342
919,12590,162529,86283
920,12609,162514,86276
921,12628,162526,86287
922,12647,162571,86297
923,12666,162480,86241
924,12685,162275,86142
925,12704,162059,86083
926,12724,161875,86007
927,12743,161745,85971
928,12762,161644,85966
929,12781,161598,85968
930,12800,161589,85985
931,12819,161656,85988
932,12838,161724,85995
933,12858,161801,86004
934,12877,161824,86026
935,12896,161869,86037
936,12915,161947,86091
937,12934,161991,86127
938,12953,162073,86156
939,12972,162120,86165
940,12992,162183,86172
941,13011,162199,86162
942,13030,162218,86205
943,13049,162220,86250
944,13068,162238,86252
945,13087,162268,86262
946,13106,162323,86265
947,13125,162392,86284
948,13145,162423,86290
949,13164,162448,86315
950,13183,162427,86328
951,13202,162407,86330
952,13221,162371,86320
953,13240,162403,86329
954,13259,162517,86345
955,13279,162535,86312
956,13298,162504,86322
957,13317,162419,86299
958,13336,162267,86297
959,13355,162029,86246
960,13374,161821,86206
961,13393,161684,86166
962,13413,161587,86149
963,13432,161552,86154
964,13451,161531,86184
965,13470,161543,86238
966,13489,161539,86239
967,13508,161570,86238
968,13527,161622,86244
969,13547,161689,86224
970,13566,161709,86237
971,13585,161709,86242
972,13604,161700,86269
973,13623,161691,86263
974,13642,161689,86247
975,13661,161671,86206
976,13681,161658,86156
977,13700,161598,86159
978,13719,161613,86153
979,13738,161586,86162
980,13757,161567,86145
981,13776,161552,86171
982,13795,161627,86144
983,13814,161704,86133
984,13834,161735,86090
985,13853,161734,86086
986,13872,161706,86096
987,13891,161719,86114
988,13910,161733,86118
989,13929,161781,86111
990,13948,161769,86070
991,13968,161668,86004
992,13987,161496,85982
993,14006,161229,85957
994,14025,161008,85991
995,14044,160871,85973
996,14063,160785,85954
997,14082,160770,85937
998,14102,160828,85945
999,14121,160868,85947
1000,14140,160941,85972
1001,14159,161025,86031
1002,14178,161071,86039
1003,14197,161141,86035
1004,14216,161208,86031
1005,14236,161272,86002
1006,14255,161221,85965
1007,14274,161218,85960
1008,14293,161172,86012
1009,14312,161198,86030
1010,14331,161194,86053
1011,14350,161245,86040
1012,14369,161347,86055
1013,14389,161393,86060
1014,14408,161457,86103
1015,14427,161493,86125
1016,14446,161540,86186
1017,14465,161593,86169
1018,14484,161666,86158
1019,14503,161728,86144
1020,14523,161783,86130
1021,14542,161827,86138
1022,14561,161840,86170
1023,14580,161873,86231
1024,14599,161858,86216
1025,14618,161781,86227
1026,14637,161648,86197
1027,14657,161520,86149
1028,14676,161359,86141
1029,14695,161294,86136
1030,14714,161255,86153
1031,14733,161209,86125
1032,14752,161166,86093
1033,14771,161151,86043
1034,14790,161183,86006
1035,14810,161219,85967
1036,14829,161302,85993
1037,14848,161309,85971
1038,14867,161303,85989
1039,14886,161280,85960
1040,14905,161299,85916
1041,14924,161307,85884
1042,14944,161315,85858
1043,14963,161294,85877
1044,14982,161266,85882
1045,15001,161241,85911
1046,15020,161237,85894
1047,15039,161255,85886
1048,15058,161318,85876
1049,15078,161387,85889
1050,15097,161400,85889
1051,15116,161411,85914
1052,15135,161410,85961
1053,15154,161400,85974
1054,15173,161487,85996
1055,15192,161529,85974
1056,15212,161603,85955
1057,15231,161603,85925
1058,15250,161515,85908
1059,15269,161337,85900
1060,15288,161096,85874
1061,15307,160913,85822
1062,15326,160750,85778
1063,15345,160700,85755
1064,15365,160660,85753
1065,15384,160712,85788
1066,15403,160753,85810
1067,15422,160800,85863
1068,15441,160879,85867
1069,15460,160972,85900
1070,15479,161071,85909
1071,15499,161176,85902
1072,15518,161215,85939
1073,15537,161225,85937
1074,15556,161253,85976
1075,15575,161224,85974
1076,15594,161246,85983
1077,15613,161288,85992
1078,15633,161381,86002
1079,15652,161430,85999
1080,15671,161418,86024
1081,15690,161440,86065
1082,15709,161422,86050
1083,15728,161450,86064
1084,15747,161529,86072
1085,15767,161643,86071
1086,15786,161701,86071
1087,15805,161729,86080
1088,15824,161722,86077
1089,15843,161715,86072
1090,15862,161739,86069
1091,15881,161703,86002
1092,15900,161598,85934
1093,15920,161379,85859
1094,15939,161156,85842
1095,15958,160931,85824
1096,15977,160789,85826
1097,15996,160694,85801
1098,16015,160709,85803
1099,16034,160741,85778
1100,16054,160806,85785
1101,16073,160861,85791
1102,16092,160894,85821
1103,16111,160936,85884
1104,16130,160961,85879
1105,16149,161026,85886
1106,16168,161049,85867
1107,16188,161115,85856
1108,16207,161106,85848
1109,16226,161087,85826
1110,16245,161028,85864
1111,16264,161022,85829
1112,16283,161023,85810
1113,16302,161068,85801
1114,16322,161166,85814
1115,16341,161203,85777
1116,16360,161249,85792
1117,16379,161261,85803
1118,16398,161255,85820
1119,16417,161254,85811
1120,16436,161277,85772
1121,16455,161383,85765
1122,16475,161442,85734
1123,16494,161464,85739
1124,16513,161481,85755
1125,16532,161402,85758
1126,16551,161222,85727
1127,16570,161034,85671
1128,16589,160843,85612
1129,16609,160718,85543
1130,16628,160654,85523
1131,16647,160617,85510
1132,16666,160635,85552
1133,16685,160642,85566
1134,16704,160725,85597
1135,16723,160782,85605
1136,16743,160866,85621
1137,16762,160882,85651
1138,16781,160929,85701
1139,16800,160959,85744
1140,16819,161017,85786
1141,16838,161072,85810
1142,16857,161114,85804
1143,16876,161176,85809
1144,16896,161133,85766
1145,16915,161112,85781
1146,16934,161105,85834
1147,16953,161143,85852
1148,16972,161169,85881
1149,16991,161204,85856
1150,17010,161230,85848
1151,17030,161271,85818
1152,17049,161322,85844
1153,17068,161373,85882
1154,17087,161402,85919
1155,17106,161437,85920
1156,17125,161539,85933
1157,17144,161608,85923
1158,17164,161673,85917
1159,17183,161641,85900
1160,17202,161495,85861
1161,17221,161265,85841
1162,17240,161029,85784
1163,17259,160860,85729
1164,17278,160719,85684
1165,17298,160692,85673
1166,17317,160632,85665
1167,17336,160655,85670
1168,17355,160635,85702
1169,17374,160610,85684
1170,17393,160618,85685
1171,17412,160667,85677
1172,17431,160748,85694
1173,17451,160846,85692
1174,17470,160907,85729
1175,17489,160930,85728
1176,17508,160896,85714
1177,17527,160877,85693
1178,17546,160899,85649
1179,17565,160958,85657
1180,17585,161037,85653
1181,17604,161098,85659
1182,17623,161114,85673
1183,17642,161114,85706
1184,17661,161152,85699
1185,17680,161254,85686
1186,17699,161278,85679
1187,17719,161363,85663
1188,17738,161419,85668
1189,17757,161468,85692
1190,17776,161489,85741
1191,17795,161484,85734
1192,17814,161454,85748
1193,17833,161429,85696
1194,17853,161307,85659
1195,17872,161092,85615
1196,17891,160875,85582
1197,17910,160720,85578
1198,17929,160643,85575
1199,17948,160615,85556
1200,17967,160662,85537
1201,17986,160739,85535
1202,18006,160800,85526
1203,18025,160862,85544
1204,18044,160915,85589
1205,18063,160962,85628
1206,18083,161032,85621
1207,18101,161098,85602
1208,18120,161171,85610
1209,18140,161209,85606
1210,18159,161219,85634
1211,18178,161207,85643
1212,18197,161204,85674
1213,18216,161188,85669
1214,18235,161218,85676
1215,18254,161267,85687
1216,18274,161344,85695
1217,18293,161388,85694
1218,18312,161465,85725
1219,18331,161504,85807
1220,18350,161573,85830
1221,18369,161621,85864
1222,18388,161649,85839
1223,18409,161732,85846
1224,18427,161734,85852
1225,18446,161752,85888
1226,18465,161790,85947
1227,18484,161760,85941
1228,18503,161607,85908
1229,18522,161376,85834
1230,18541,161187,85791
1231,18561,160999,85736
1232,18580,160923,85752
1233,18599,160860,85772
1234,18618,160845,85803
1235,18637,160874,85813
1236,18656,160939,85817
1237,18675,161022,85807
1238,18695,161061,85798
1239,18714,161101,85817
1240,18733,161092,85818
1241,18752,161134,85855
1242,18771,161166,85861
1243,18790,161217,85868
1244,18809,161228,85852
1245,18829,161218,85829
1246,18848,161194,85821
1247,18867,161231,85853
1248,18886,161242,85893
1249,18905,161257,85886
1250,18924,161251,85855
1251,18943,161238,85828
1252,18963,161315,85806
1253,18982,161339,85789
1254,19001,161394,85812
1255,19020,161426,85846
1256,19039,161444,85843
1257,19058,161486,85845
1258,19077,161555,85824
1259,19096,161665,85828
1260,19116,161733,85821
1261,19135,161718,85833
1262,19154,161572,85799
1263,19173,161355,85793
1264,19192,161084,85742
1265,19211,160953,85743
1266,19230,160855,85712
1267,19250,160823,85698
1268,19269,160774,85679
1269,19288,160752,85676
1270,19307,160767,85728
1271,19326,160757,85723
1272,19345,160795,85707
1273,19364,160844,85700
1274,19384,160900,85686
1275,19403,160933,85671
1276,19422,160971,85710
1277,19441,160982,85751
1278,19460,160978,85759
1279,19479,160995,85758
1280,19498,161000,85737
1281,19518,161039,85718
1282,19537,161042,85729
1283,19556,161070,85778
1284,19575,161078,85807
1285,19594,161090,85801
1286,19613,161093,85817
1287,19632,161142,85804
1288,19651,161228,85810
1289,19671,161281,85773
1290,19690,161301,85803
1291,19709,161310,85819
1292,19728,161361,85867
1293,19747,161351,85848
1294,19766,161353,85822
1295,19785,161321,85751
1296,19805,161171,85717
1297,19824,160980,85694
1298,19843,160784,85663
1299,19862,160616,85677
1300,19881,160483,85660
1301,19900,160413,85631
1302,19919,160405,85610
1303,19939,160426,85593
1304,19958,160397,85576
1305,19977,160434,85590
1306,19996,160407,85601
1307,20015,160441,85605
1308,20034,160467,85614
1309,20053,160481,85574
1310,20073,160522,85544
1311,20092,160511,85514
1312,20111,160497,85525
1313,20130,160471,85523
1314,20149,160456,85536
1315,20168,160423,85524
1316,20187,160423,85490
1317,20206,160482,85501
1318,20226,160522,85473
1319,20245,160517,85481
1320,20264,160548,85506
1321,20283,160594,85551
1322,20302,160684,85537
1323,20321,160771,85548
1324,20340,160831,85542
1325,20360,160900,85498
1326,20379,160963,85489
1327,20398,160996,85511
1328,20417,161042,85544
1329,20436,160991,85518
1330,20455,160847,85464
1331,20474,160616,85393
1332,20494,160463,85344
1333,20513,160281,85297
1334,20532,160191,85308
1335,20551,160147,85303
1336,20570,160153,85327
1337,20589,160195,85338
1338,20608,160236,85329
1339,20627,160352,85313
1340,20647,160406,85324
1341,20666,160477,85354
1342,20685,160523,85372
1343,20704,160560,85406
1344,20723,160563,85402
1345,20742,160616,85385
1346,20761,160648,85377
1347,20781,160672,85368
1348,20800,160652,85365
1349,20819,160635,85376
1350,20838,160624,85412
1351,20857,160623,85432
1352,20876,160679,85438
1353,20895,160739,85434
1354,20915,160798,85453
1355,20934,160845,85473
1356,20954,160855,85509
1357,20972,160910,85567
1358,20991,160902,85588
1359,21011,160968,85616
1360,21029,161048,85633
1361,21049,161116,85634
1362,21068,161135,85651
1363,21087,161058,85634
1364,21106,160877,85642
1365,21125,160648,85599
1366,21145,160449,85564
1367,21163,160305,85532
1368,21183,160234,85527
1369,21202,160213,85509
1370,21221,160203,85550
1371,21240,160204,85601
1372,21259,160259,85602
1373,21278,160250,85645
1374,21297,160316,85620
1375,21316,160394,85608
1376,21336,160419,85589
1377,21355,160422,85610
1378,21374,160411,85624
1379,21393,160375,85636
1380,21412,160338,85632
1381,21431,160332,85622
1382,21450,160324,85590
1383,21470,160325,85587
1384,21489,160343,85586
1385,21508,160345,85611
1386,21527,160337,85652
1387,21546,160303,85647
1388,21565,160328,85658
1389,21585,160400,85638
1390,21604,160463,85653
1391,21623,160440,85621
1392,21642,160433,85622
1393,21661,160440,85666
1394,21680,160466,85696
1395,21699,160539,85740
1396,21718,160534,85679
1397,21738,160468,85669
1398,21757,160257,85588
1399,21776,159979,85559
1400,21795,159659,85541
1401,21814,159388,85500
1402,21833,159182,85465
1403,21852,159087,85416
1404,21871,159064,85392
1405,21891,159030,85351
1406,21911,159013,85359
1407,21929,158989,85378
1408,21948,158997,85430
1409,21967,159024,85421
1410,21986,159105,85428
1411,22005,159201,85426
1412,22025,159244,85431
1413,22044,159293,85439
1414,22064,159326,85458
1415,22082,159345,85491
1416,22102,159382,85502
1417,22121,159405,85507
1418,22139,159473,85493
1419,22159,159578,85526
1420,22178,159630,85514
1421,22198,159667,85543
1422,22216,159709,85562
1423,22235,159726,85590
1424,22254,159785,85588
1425,22273,159841,85587
1426,22292,159899,85574
1427,22313,159903,85551
1428,22332,159917,85533
1429,22350,159888,85512
1430,22369,159870,85523
1431,22388,159817,85500
1432,22407,159684,85453
1433,22427,159529,85400
1434,22446,159315,85364
1435,22465,159167,85335
1436,22484,159029,85307
1437,22503,158961,85329
1438,22522,158923,85338
1439,22541,158971,85333
1440,22561,159065,85337
1441,22581,159156,85329
1442,22600,159230,85329
1443,22619,159275,85344
1444,22638,159310,85393
1445,22657,159395,85404
1446,22675,159452,85393
1447,22695,159480,85369
1448,22713,159535,85374
1449,22734,159585,85364
1450,22753,159603,85363
1451,22772,159614,85395
1452,22790,159615,85400
1453,22810,159613,85381
1454,22828,159664,85376
1455,22847,159723,85368
1456,22868,159784,85383
1457,22886,159868,85395
1458,22905,159914,85419
1459,22924,159946,85458
1460,22944,159979,85465
1461,22962,160062,85467
1462,22981,160120,85453
1463,23002,160154,85407
1464,23020,160175,85422
1465,23039,160182,85451
1466,23058,160176,85482
1467,23078,160027,85423
1468,23097,159800,85375
1469,23116,159538,85299
1470,23136,159367,85257
1471,23155,159262,85247
1472,23174,159199,85255
1473,23193,159156,85273
1474,23212,159168,85290
1475,23231,159173,85289
1476,23249,159203,85258
1477,23269,159260,85243
1478,23288,159305,85242
1479,23308,159353,85246
1480,23326,159377,85257
1481,23346,159424,85297
1482,23365,159437,85287
1483,23383,159483,85263
1484,23403,159518,85264
1485,23422,159537,85259
1486,23442,159590,85305
1487,23461,159617,85298
1488,23479,159683,85338
1489,23498,159715,85314
1490,23518,159784,85312
1491,23537,159868,85306
1492,23557,159968,85312
1493,23576,160044,85332
1494,23595,160118,85368
1495,23614,160181,85441
1496,23633,160217,85457
1497,23652,160251,85480
1498,23671,160289,85487
1499,23691,160358,85497
1500,23710,160377,85505
1501,23729,160341,85521
1502,23748,160225,85529
1503,23767,160030,85510
1504,23786,159786,85469
1505,23805,159575,85419
1506,23823,159456,85391
1507,23844,159364,85363
1508,23863,159335,85381
1509,23881,159314,85399
1510,23900,159327,85429
1511,23919,159316,85454
1512,23938,159384,85432
1513,23958,159429,85435
1514,23978,159501,85451
1515,23997,159596,85486
1516,24016,159668,85507
1517,24035,159683,85547
1518,24054,159700,85544
1519,24073,159748,85536
1520,24092,159798,85541
1521,24112,159881,85542
1522,24131,159925,85543
1523,24149,159976,85567
1524,24169,159991,85595
1525,24188,160002,85590
1526,24207,160069,85594
1527,24226,160178,85582
1528,24245,160306,85583
1529,24265,160370,85596
1530,24284,160423,85597
1531,24303,160406,85633
1532,24322,160387,85607
1533,24341,160427,85611
1534,24360,160470,85578
1535,24378,160551,85559
1536,24399,160584,85540
1537,24418,160588,85545
1538,24437,160462,85528
1539,24456,160224,85455
1540,24475,159947,85394
1541,24494,159713,85321
1542,24513,159539,85242
1543,24533,159406,85232
1544,24552,159325,85231
1545,24571,159314,85218
1546,24590,159297,85239
1547,24609,159303,85242
1548,24628,159334,85236
1549,24647,159356,85211
1550,24667,159436,85212
1551,24685,159485,85221
1552,24705,159558,85263
1553,24724,159569,85290
1554,24743,159552,85279
1555,24762,159541,85302
1556,24781,159562,85252
1557,24801,159607,85247
1558,24820,159612,85263
1559,24839,159647,85282
1560,24858,159667,85334
1561,24877,159716,85359
1562,24896,159729,85384
1563,24915,159802,85397
1564,24934,159920,85422
1565,24953,160055,85420
1566,24972,160162,85483
1567,24992,160257,85526
1568,25011,160360,85581
1569,25030,160431,85599
1570,25049,160485,85590
1571,25067,160556,85591
1572,25087,160628,85585
1573,25107,160616,85620
1574,25126,160467,85582
1575,25144,160240,85575
1576,25164,159987,85542
1577,25183,159828,85520
1578,25202,159736,85504
1579,25222,159718,85487
1580,25241,159683,85487
1581,25260,159704,85507
1582,25279,159696,85557
1583,25298,159744,85575
1584,25317,159826,85623
1585,25336,159923,85623
1586,25355,160066,85639
1587,25375,160115,85638
1588,25394,160184,85669
1589,25413,160203,85711
1590,25432,160221,85740
1591,25451,160226,85730
1592,25470,160249,85706
1593,25489,160248,85677
1594,25509,160255,85682
1595,25528,160310,85708
1596,25547,160403,85744
1597,25566,160467,85794
1598,25585,160533,85764
1599,25604,160562,85743
1600,25623,160562,85717
1601,25643,160616,85681
1602,25662,160619,85685
1603,25681,160663,85692
1604,25700,160696,85735
1605,25719,160698,85700
1606,25738,160726,85694
1607,25757,160743,85668
1608,25777,160808,85665
1609,25796,160766,85635
1610,25815,160587,85594
1611,25834,160314,85563
1612,25853,160056,85507
1613,25872,159865,85492
1614,25891,159832,85471
1615,25910,159840,85453
1616,25930,159859,85430
1617,25949,159857,85444
1618,25968,159845,85455
1619,25986,159831,85495
1620,26005,159846,85489
1621,26024,159942,85497
1622,26043,160034,85502
1623,26064,160111,85517
1624,26083,160105,85519
1625,26102,160102,85530
1626,26121,160079,85551
1627,26139,160047,85547
1628,26159,160081,85549
1629,26178,160122,85561
1630,26198,160206,85577
1631,26217,160263,85590
1632,26236,160332,85620
1633,26255,160371,85679
1634,26274,160430,85703
1635,26293,160514,85727
1636,26312,160603,85727
1637,26332,160731,85751
1638,26351,160798,85791
1639,26370,160877,85825
1640,26389,160913,85888
1641,26408,160878,85837
1642,26427,160851,85854
1643,26446,160872,85856
1644,26465,160874,85813
1645,26485,160729,85782
1646,26504,160514,85751
1647,26523,160243,85728
1648,26542,159998,85708
1649,26561,159815,85680
1650,26579,159709,85619
1651,26599,159682,85586
1652,26619,159695,85572
1653,26638,159743,85617
1654,26657,159833,85656
1655,26676,159875,85679
1656,26695,159864,85673
1657,26714,159959,85654
1658,26733,160023,85663
1659,26752,160083,85624
1660,26772,160062,85612
1661,26791,160053,85613
1662,26810,160035,85656
1663,26829,159981,85636
1664,26848,159969,85618
1665,26867,159946,85577
1666,26886,159963,85543
1667,26906,159950,85539
1668,26925,159955,85547
1669,26944,159987,85582
1670,26963,160024,85596
1671,26982,160060,85592
1672,27001,160118,85550
1673,27019,160197,85545
1674,27040,160203,85513
1675,27059,160207,85536
1676,27077,160178,85545
1677,27096,160162,85553
1678,27116,160135,85529
1679,27135,160136,85498
1680,27154,160047,85459
1681,27174,159863,85375
1682,27193,159608,85318
1683,27212,159360,85291
1684,27231,159111,85288
1685,27250,158983,85249
1686,27269,158961,85240
1687,27288,158954,85211
1688,27307,158971,85195
1689,27326,158992,85200
1690,27345,159025,85216
1691,27365,159061,85272
1692,27384,159119,85280
1693,27403,159210,85309
1694,27422,159282,85296
1695,27442,159364,85289
1696,27461,159412,85302
1697,27480,159451,85320
1698,27499,159490,85367
1699,27518,159490,85391
1700,27537,159518,85414
1701,27556,159579,85391
1702,27575,159666,85392
1703,27595,159691,85413
1704,27614,159707,85430
1705,27633,159707,85444
1706,27652,159698,85466
1707,27671,159717,85480
1708,27690,159722,85480
1709,27709,159787,85490
1710,27729,159798,85488
1711,27748,159843,85519
1712,27766,159916,85581
1713,27786,159994,85646
1714,27805,160092,85670
1715,27824,160200,85658
1716,27843,160151,85612
1717,27863,159991,85545
1718,27882,159752,85493
1719,27901,159576,85492
1720,27920,159467,85530
1721,27939,159386,85519
1722,27958,159448,85533
1723,27977,159512,85560
1724,27997,159631,85558
1725,28016,159658,85549
1726,28035,159716,85557
1727,28054,159736,85609
1728,28073,159788,85635
1729,28092,159852,85638
1730,28111,159951,85640
1731,28130,160035,85612
1732,28149,160048,85592
1733,28169,160112,85621
1734,28188,160091,85615
1735,28207,160042,85607
1736,28226,159991,85547
1737,28245,159993,85521
1738,28264,160056,85510
1739,28284,160108,85501
1740,28303,160179,85513
1741,28322,160234,85540
1742,28341,160286,85589
1743,28360,160351,85591
1744,28379,160436,85581
1745,28398,160511,85585
1746,28418,160612,85600
1747,28437,160711,85627
1748,28456,160777,85644
1749,28475,160817,85694
1750,28494,160794,85669
1751,28513,160662,85623
1752,28532,160446,85560
1753,28552,160299,85494
1754,28571,160139,85502
1755,28590,160002,85479
1756,28609,159900,85515
1757,28628,159865,85522
1758,28646,159901,85524
1759,28666,159948,85526
1760,28686,160042,85529
1761,28705,160082,85536
1762,28724,160161,85584
1763,28743,160251,85629
1764,28762,160333,85670
1765,28781,160401,85689
1766,28800,160497,85683
1767,28819,160553,85680
1768,28839,160532,85650
1769,28858,160515,85655
1770,28877,160469,85703
1771,28896,160481,85731
1772,28915,160516,85773
1773,28934,160577,85755
1774,28953,160653,85781
1775,28973,160696,85770
1776,28992,160724,85792
1777,29011,160705,85804
1778,29030,160696,85800
1779,29049,160680,85807
1780,29068,160702,85827
1781,29087,160758,85811
1782,29107,160881,85839
1783,29126,161021,85881
1784,29145,161235,85963
1785,29164,161427,86034
1786,29183,161436,86026
1787,29202,161272,85956
1788,29221,160988,85871
1789,29241,160746,85791
1790,29260,160540,85727
1791,29279,160376,85730
1792,29298,160309,85761
1793,29317,160315,85779
1794,29336,160345,85769
1795,29355,160344,85725
1796,29374,160397,85685
1797,29394,160382,85657
1798,29413,160401,85664
1799,29432,160387,85666
1800,29451,160380,85686
1801,29470,160289,85670
1802,29489,160182,85602
1803,29508,160058,85549
1804,29528,159949,85534
1805,29547,159910,85532
1806,29566,159906,85561
1807,29585,159927,85579
1808,29604,159942,85576
1809,29623,159992,85589
1810,29642,160129,85609
1811,29662,160277,85608
1812,29681,160307,85605
1813,29700,160341,85601
1814,29719,160340,85641
1815,29738,160346,85631
1816,29757,160378,85658
1817,29776,160379,85651
1818,29796,160436,85629
1819,29815,160359,85587
1820,29834,160263,85557
1821,29853,160082,85529
1822,29872,159849,85472
1823,29891,159653,85442
1824,29910,159542,85418
1825,29929,159526,85440
1826,29949,159514,85432
1827,29968,159568,85516
1828,29987,159641,85551
