sample_index,timestamp_ms,ir,red
0,0,165075,86157
1,1,165116,86138
2,1,165136,86126
3,1,165208,86119
4,1,165219,86092
5,2,165225,86117
6,2,165183,86107
7,2,165142,86134
8,2,165067,86111
9,2,165036,86091
10,3,165002,86057
11,3,164947,86013
12,3,164941,86029
13,3,164963,86023
14,3,164975,86083
15,4,165008,86085
16,4,165084,86086
17,5,165163,86106
18,5,165236,86161
19,5,165266,86111
20,6,165291,86121
21,6,165293,86163
22,6,165321,86195
23,6,165332,86194
24,7,165353,86185
25,7,165398,86183
26,7,165389,86178
27,7,165366,86182
28,7,165262,86176
29,8,165169,86170
30,8,165102,86172
31,8,165114,86159
32,8,165145,86153
33,8,165139,86110
34,9,165144,86092
35,9,165114,86090
36,9,165119,86133
37,9,165117,86112
38,9,165156,86142
39,9,165197,86132
40,9,165253,86117
41,9,165248,86113
42,9,165231,86110
43,10,165210,86122
44,10,165195,86137
45,10,165199,86148
46,10,165194,86115
47,10,165190,86110
48,10,165142,86068
49,10,165076,86064
50,10,165042,86092
51,10,165015,86097
52,10,165013,86093
53,10,165037,86106
54,11,165077,86073
55,11,165135,86089
56,11,165146,86081
57,11,165144,86106
58,11,165149,86109
59,11,165104,86089
60,11,165108,86086
61,11,165106,86080
62,11,165167,86048
63,11,165170,86039
64,12,165154,86058
65,12,165131,86046
66,12,165059,86039
67,12,164968,86011
68,12,164929,85976
69,12,164952,85959
70,12,164959,85944
71,12,164971,85916
72,12,164943,85929
73,13,164958,85941
74,13,164931,85937
75,13,164994,85910
76,13,165042,85902
77,13,165094,85890
78,13,165065,85889
79,13,165077,85899
80,13,165085,85930
81,13,165040,85901
82,13,165043,85919
83,13,165041,85894
84,13,165083,85888
85,13,165018,85855
86,14,164935,85848
87,14,164870,85865
88,14,164814,85879
89,14,164795,85872
90,14,164803,85836
91,14,164848,85836
92,14,164861,85817
93,14,164854,85847
94,14,164863,85865
95,14,164863,85884
96,14,164862,85881
97,14,164912,85862
98,14,164963,85856
99,15,164962,85827
100,15,164981,85858
101,15,164950,85870
102,15,164921,85897
103,15,164911,85877
104,15,164891,85862
105,15,164841,85818
106,15,164811,85808
107,15,164764,85790
108,15,164756,85793
109,15,164730,85830
110,15,164731,85843
111,16,164751,85837
112,16,164770,85824
113,16,164833,85821
114,16,164854,85819
115,16,164869,85813
116,16,164834,85848
117,16,164841,85857
118,16,164842,85866
119,16,164854,85843
120,16,164908,85847
121,16,164941,85825
122,16,164930,85831
123,16,164850,85826
124,17,164781,85835
125,17,164725,85828
126,17,164695,85808
127,17,164685,85776
128,17,164725,85776
129,17,164732,85752
130,17,164722,85783
131,17,164727,85814
132,17,164750,85828
133,17,164777,85837
134,17,164814,85831
135,17,164878,85811
136,17,164892,85777
137,18,164938,85798
138,18,164926,85798
139,18,164903,85822
140,18,164893,85830
141,18,164889,85796
142,18,164908,85763
143,18,164897,85735
144,18,164859,85715
145,18,164839,85726
146,18,164794,85747
147,18,164801,85742
148,18,164836,85733
149,18,164899,85725
150,18,164962,85707
151,19,164988,85717
152,19,165024,85723
153,19,165016,85763
154,19,165043,85765
155,19,165034,85757
156,19,165010,85732
157,19,165053,85741
158,19,165069,85708
159,19,165076,85718
160,19,165078,85735
161,19,165029,85745
162,19,164958,85729
163,19,164895,85704
164,19,164880,85681
165,19,164881,85664
166,20,164898,85672
167,20,164884,85680
168,20,164908,85716
169,20,164894,85704
170,20,164945,85707
171,20,164987,85695
172,20,165018,85676
173,20,165018,85676
174,20,165024,85692
175,20,165030,85718
176,20,164989,85710
177,20,165008,85725
178,20,165027,85704
179,20,165032,85687
180,21,164984,85660
181,21,164919,85664
182,21,164821,85658
183,21,164769,85685
184,21,164737,85669
185,21,164754,85654
186,21,164777,85634
187,21,164830,85633
188,21,164858,85640
189,21,164860,85636
190,21,164865,85690
191,21,164843,85658
192,21,164857,85685
193,21,164872,85647
194,21,164929,85650
195,22,164939,85640
196,22,164910,85655
197,22,164940,85678
198,22,164924,85695
199,22,164884,85661
200,22,164836,85640
201,22,164819,85616
202,22,164776,85579
203,22,164757,85589
204,22,164721,85605
205,22,164721,85628
206,22,164736,85633
207,22,164791,85625
208,22,164838,85618
209,23,164887,85593
210,23,164866,85600
211,23,164864,85610
212,23,164869,85646
213,23,164870,85637
214,23,164914,85642
215,23,164945,85619
216,23,164982,85599
217,23,164983,85599
218,23,164976,85611
219,23,164950,85615
220,23,164838,85611
221,23,164821,85597
222,23,164816,85590
223,23,164841,85568
224,24,164860,85544
225,24,164867,85571
226,24,164867,85582
227,24,164886,85627
228,24,164905,85631
229,24,164980,85622
230,24,165031,85606
231,24,165107,85603
232,24,165130,85618
233,24,165141,85620
234,24,165112,85650
235,24,165070,85642
236,24,165085,85667
237,24,165086,85619
238,24,165088,85597
239,24,165019,85582
240,25,164964,85575
241,25,164931,85623
242,25,164882,85606
243,25,164872,85616
244,25,164894,85585
245,25,164945,85567
246,25,164963,85547
247,25,164972,85584
248,25,164983,85575
249,25,165005,85588
250,25,164990,85604
251,25,165013,85588
252,25,165055,85581
253,25,165075,85560
254,25,165061,85570
255,25,165029,85559
256,26,164994,85602
257,26,164949,85581
258,26,164920,85538
259,26,164856,85518
260,26,164817,85498
261,26,164780,85496
262,26,164777,85502
263,26,164747,85558
264,43,164762,85541
265,62,164775,85532
266,81,164796,85547
267,100,164881,85528
268,120,164875,85522
269,139,164895,85542
270,158,164914,85557
271,177,164947,85561
272,196,164954,85564
273,215,164973,85545
274,234,164996,85544
275,254,165034,85527
276,273,165034,85518
277,292,165025,85514
278,311,164955,85544
279,330,164884,85491
280,349,164841,85495
281,368,164836,85473
282,388,164888,85483
283,407,164919,85480
284,426,164956,85471
285,445,164947,85517
286,464,164956,85535
287,483,164946,85527
288,502,164984,85517
289,521,165071,85506
290,541,165102,85488
291,560,165128,85533
292,579,165133,85535
293,598,165118,85551
294,617,165083,85556
295,636,165104,85542
296,655,165118,85533
297,675,165130,85499
298,694,165078,85479
299,713,165067,85494
300,732,165010,85541
301,751,164972,85522
302,770,164967,85540
303,789,164972,85508
304,809,165034,85491
305,828,165077,85493
306,847,165122,85505
307,866,165123,85549
308,885,165145,85556
309,904,165133,85533
310,923,165153,85526
311,942,165170,85511
312,962,165181,85483
313,981,165143,85491
314,1000,165102,85516
315,1019,165077,85509
316,1038,165003,85511
317,1057,164979,85475
318,1076,164932,85443
319,1096,164923,85433
320,1115,164902,85420
321,1134,164894,85448
322,1153,164893,85462
323,1172,164899,85468
324,1191,164908,85478
325,1210,164939,85466
326,1229,165002,85448
327,1249,165017,85439
328,1268,165035,85459
329,1287,165045,85491
330,1306,165031,85518
331,1325,165006,85488
332,1344,164991,85475
333,1363,165029,85484
334,1383,165050,85461
335,1402,165043,85462
336,1421,164979,85425
337,1440,164929,85462
338,1459,164850,85442
339,1478,164842,85423
340,1497,164864,85407
341,1517,164898,85405
342,1536,164896,85403
343,1555,164932,85427
344,1574,164943,85460
345,1593,164961,85445
346,1612,164952,85449
347,1631,164966,85431
348,1650,164996,85432
349,1670,164994,85417
350,1689,165012,85443
351,1708,164998,85446
352,1727,165011,85470
353,1746,165030,85457
354,1765,165045,85440
355,1784,165062,85417
356,1804,165005,85387
357,1823,164937,85383
358,1842,164869,85397
359,1861,164831,85415
360,1880,164798,85409
361,1899,164822,85390
362,1918,164832,85382
363,1938,164856,85380
364,1957,164899,85389
365,1976,164893,85401
366,1995,164898,85421
367,2014,164907,85438
368,2033,164955,85435
369,2052,164989,85417
370,2071,165042,85417
371,2091,165028,85388
372,2110,165019,85422
373,2129,164993,85413
374,2148,164987,85451
375,2167,164925,85436
376,2186,164910,85384
377,2205,164888,85359
378,2225,164877,85347
379,2244,164840,85340
380,2263,164819,85344
381,2282,164868,85388
382,2301,164845,85387
383,2320,164855,85390
384,2339,164903,85376
385,2359,164938,85345
386,2378,164949,85354
387,2397,164965,85369
388,2416,164976,85400
389,2435,164956,85387
390,2454,164935,85401
391,2473,164958,85373
392,2492,165013,85375
393,2512,165032,85362
394,2531,165017,85361
395,2550,164948,85355
396,2569,164889,85367
397,2588,164832,85355
398,2607,164808,85347
399,2626,164811,85325
400,2646,164829,85315
401,2665,164836,85312
402,2684,164837,85327
403,2703,164850,85339
404,2722,164844,85347
405,2741,164879,85345
406,2760,164862,85318
407,2780,164916,85314
408,2799,164875,85306
409,2818,164861,85313
410,2837,164843,85332
411,2856,164835,85346
412,2875,164845,85363
413,2894,164895,85329
414,2913,164910,85323
415,2933,164853,85278
416,2952,164762,85283
417,2971,164681,85292
418,2990,164629,85319
419,3009,164599,85297
420,3028,164599,85296
421,3047,164626,85297
422,3067,164664,85264
423,3086,164674,85265
424,3105,164690,85302
425,3124,164718,85324
426,3143,164717,85332
427,3162,164752,85328
428,3181,164780,85313
429,3201,164845,85309
430,3220,164883,85291
431,3239,164929,85320
432,3258,164983,85358
433,3277,164961,85351
434,3296,164908,85348
435,3315,164879,85324
436,3334,164911,85304
437,3354,164908,85282
438,3373,164884,85284
439,3392,164828,85309
440,3411,164793,85317
441,3430,164773,85312
442,3449,164790,85321
443,3468,164838,85280
444,3488,164915,85283
445,3507,164940,85285
446,3526,164978,85300
447,3545,164938,85323
448,3564,164904,85328
449,3583,164893,85309
450,3602,164876,85293
451,3622,164896,85270
452,3641,164903,85293
453,3660,164870,85275
454,3679,164806,85305
455,3698,164706,85287
456,3717,164626,85274
457,3736,164576,85236
458,3755,164592,85233
459,3775,164577,85202
460,3794,164573,85229
461,3813,164566,85245
462,3832,164587,85270
463,3851,164591,85265
464,3870,164647,85263
465,3889,164691,85262
466,3909,164710,85221
467,3928,164736,85250
468,3947,164736,85240
469,3966,164723,85262
470,3985,164724,85266
471,4004,164738,85261
472,4023,164771,85252
473,4043,164799,85236
474,4062,164761,85215
475,4081,164683,85199
476,4100,164634,85228
477,4119,164563,85230
478,4138,164545,85230
479,4157,164537,85194
480,4176,164542,85186
481,4196,164532,85179
482,4215,164566,85177
483,4234,164565,85213
484,4253,164564,85235
485,4272,164556,85229
486,4291,164588,85230
487,4310,164637,85206
488,4330,164676,85218
489,4349,164695,85220
490,4368,164691,85214
491,4387,164715,85260
492,4406,164712,85248
493,4425,164699,85248
494,4444,164631,85210
495,4464,164600,85183
496,4483,164522,85177
497,4502,164487,85167
498,4521,164450,85213
499,4540,164458,85219
500,4559,164474,85204
501,4578,164478,85194
502,4597,164547,85183
503,4617,164574,85179
504,4636,164624,85204
505,4655,164630,85214
506,4674,164639,85250
507,4693,164616,85244
508,4712,164666,85241
509,4731,164689,85214
510,4751,164725,85192
511,4770,164728,85204
512,4789,164711,85213
513,4808,164690,85233
514,4827,164642,85224
515,4846,164593,85207
516,4865,164547,85182
517,4885,164566,85149
518,4904,164560,85145
519,4923,164535,85146
520,4942,164503,85176
521,4961,164509,85173
522,4980,164544,85186
523,4999,164601,85164
524,5018,164689,85152
525,5038,164689,85155
526,5057,164705,85161
527,5076,164668,85181
528,5095,164676,85297
529,5114,164687,85194
530,5133,164691,85184
531,5152,164721,85173
532,5172,164746,85142
533,5191,164711,85159
534,5210,164632,85164
535,5229,164566,85151
536,5248,164468,85151
537,5267,164453,85112
538,5286,164453,85097
539,5306,164491,85088
540,5325,164470,85091
541,5344,164468,85148
542,5363,164473,85145
543,5382,164471,85111
544,5401,164508,85131
545,5420,164539,85126
546,5440,164602,85118
547,5459,164616,85103
548,5478,164623,85128
549,5497,164605,85150
550,5516,164589,85143
551,5535,164591,85154
552,5554,164634,85131
553,5574,164689,85120
554,5593,164636,85118
555,5612,164547,85083
556,5631,164445,85111
557,5650,164382,85108
558,5669,164373,85090
559,5688,164375,85085
560,5707,164422,85067
561,5727,164407,85044
562,5746,164442,85070
563,5765,164439,85105
564,5784,164477,85121
565,5803,164518,85117
566,5822,164542,85113
567,5841,164606,85107
568,5861,164606,85076
569,5880,164586,85100
570,5899,164572,85115
571,5918,164589,85158
572,5937,164557,85139
573,5956,164593,85127
574,5975,164572,85097
575,5995,164519,85053
576,6014,164427,85055
577,6033,164361,85061
578,6052,164319,85080
579,6071,164314,85083
580,6090,164336,85082
581,6109,164382,85069
582,6129,164436,85065
583,6148,164434,85062
584,6167,164457,85065
585,6186,164450,85105
586,6205,164432,85090
587,6224,164486,85124
588,6243,164489,85087
589,6263,164546,85082
590,6282,164532,85091
591,6301,164535,85081
592,6320,164526,85122
593,6339,164528,85123
594,6358,164490,85119
595,6377,164458,85062
596,6396,164446,85035
597,6416,164413,85021
598,6435,164359,85024
599,6454,164307,85035
600,6473,164311,85065
601,6492,164338,85057
602,6511,164389,85067
603,6530,164445,85054
604,6550,164487,85012
605,6569,164498,85041
606,6588,164511,85049
607,6607,164495,85088
608,6626,164444,85070
609,6645,164480,85060
610,6664,164499,85041
611,6684,164561,85041
612,6703,164550,85041
613,6722,164539,85048
614,6741,164451,85066
615,6760,164366,85026
616,6779,164281,85021
617,6798,164257,84977
618,6817,164268,84962
619,6837,164256,84941
620,6856,164274,84975
621,6875,164254,84985
622,6894,164225,85004
623,6913,164238,85006
624,6932,164271,84992
625,6951,164318,84992
626,6971,164360,84974
627,6990,164385,84998
628,7009,164396,85000
629,7028,164387,85032
630,7047,164372,85024
631,7066,164371,85010
632,7085,164411,85008
633,7105,164487,84989
634,7124,164473,84985
635,7143,164411,84978
636,7162,164325,84977
637,7181,164230,84967
638,7200,164187,84954
639,7219,164187,84950
640,7239,164244,84931
641,7258,164250,84931
642,7277,164277,84939
643,7296,164254,84980
644,7315,164258,84982
645,7334,164303,84989
646,7353,164351,84966
647,7373,164385,84970
648,7392,164382,84957
649,7411,164390,84985
650,7430,164368,84994
651,7449,164373,85033
652,7468,164386,85003
653,7487,164397,84986
654,7506,164401,84979
655,7526,164344,84947
656,7545,164291,84939
657,7564,164217,84946
658,7583,164163,84960
659,7602,164118,84948
660,7621,164117,84931
661,7640,164151,84928
662,7660,164202,84910
663,7679,164248,84942
664,7698,164259,84940
665,7717,164248,84975
666,7736,164269,84962
667,7755,164297,84972
668,7774,164341,84962
669,7794,164362,84956
670,7813,164341,84943
671,7832,164339,84964
672,7851,164323,84990
673,7870,164302,84976
674,7889,164324,84984
675,7908,164272,84943
676,7928,164211,84907
677,7947,164129,84888
678,7966,164067,84895
679,7985,163994,84917
680,8004,163968,84921
681,8023,163996,84915
682,8042,163989,84891
683,8061,164033,84883
684,8081,164064,84875
685,8100,164055,84886
686,8119,164056,84911
687,8138,164060,84922
688,8157,164066,84928
689,8176,164081,84902
690,8195,164125,84898
691,8215,164126,84881
692,8234,164134,84910
693,8253,164139,84921
694,8272,164146,84953
695,8291,164096,84918
696,8310,164039,84890
697,8329,164009,84859
698,8349,163951,84825
699,8368,163914,84826
700,8387,163860,84847
701,8406,163863,84863
702,8425,163844,84855
703,8444,163893,84871
704,8463,163970,84855
705,8483,164008,84860
706,8502,164023,84867
707,8521,164033,84858
708,8540,164042,84900
709,8559,164052,84897
710,8578,164078,84897
711,8597,164099,84870
712,8617,164142,84863
713,8636,164147,84846
714,8655,164163,84877
715,8674,164155,84898
716,8693,164063,84863
717,8712,163995,84845
718,8731,163915,84823
719,8751,163962,84811
720,8770,163917,84803
721,8789,163923,84807
722,8808,163903,84837
723,8827,163914,84838
724,8846,163917,84828
725,8865,163973,84832
726,8884,164046,84823
727,8904,164059,84814
728,8923,164069,84831
729,8942,164077,84848
730,8961,164071,84886
731,8980,164073,84868
732,8999,164110,84854
733,9018,164153,84838
734,9038,164187,84840
735,9057,164173,84838
736,9076,164124,84851
737,9095,164052,84859
738,9114,163925,84837
739,9133,163902,84807
740,9152,163869,84788
741,9172,163871,84774
742,9191,163873,84782
743,9210,163859,84807
744,9229,163891,84837
745,9248,163912,84830
746,9267,163991,84845
747,9286,164078,84856
748,9306,164191,84844
749,9325,164211,84850
750,9344,164239,84848
751,9363,164228,84896
752,9382,164213,84899
753,9401,164213,84879
754,9420,164254,84855
755,9440,164287,84857
756,9459,164284,84857
757,9478,164257,84834
758,9497,164180,84853
759,9516,164071,84844
760,9535,163995,84843
761,9554,163998,84803
762,9573,164073,84815
763,9593,164073,84785
764,9612,164087,84783
765,9631,164041,84798
766,9650,164025,84836
767,9669,164034,84825
768,9688,164079,84790
769,9707,164111,84773
770,9727,164118,84764
771,9746,164110,84770
772,9765,164079,84782
773,9784,164086,84834
774,9803,164053,84823
775,9822,164104,84807
776,9841,164143,84789
777,9861,164101,84749
778,9880,163990,84738
779,9899,163895,84737
780,9918,163782,84747
781,9937,163684,84724
782,9956,163645,84722
783,9975,163621,84669
784,9995,163656,84682
785,10014,163645,84675
786,10033,163667,84684
787,10052,163673,84738
788,10071,163655,84735
789,10090,163707,84719
790,10109,163714,84702
791,10129,163732,84685
792,10148,163743,84664
793,10167,163715,84690
794,10186,163675,84701
795,10205,163671,84727
796,10224,163699,84732
797,10243,163721,84703
798,10263,163741,84697
799,10282,163687,84666
800,10301,163579,84656
801,10320,163477,84668
802,10339,163434,84680
803,10358,163426,84678
804,10377,163431,84662
805,10396,163556,84671
806,10416,163637,84666
807,10435,163706,84688
808,10454,163701,84713
809,10473,163717,84746
810,10492,163747,84747
811,10511,163802,84732
812,10530,163876,84717
813,10550,163886,84719
814,10569,163850,84733
815,10588,163819,84736
816,10607,163804,84775
817,10626,163790,84751
818,10645,163778,84733
819,10664,163769,84707
820,10684,163738,84676
821,10703,163659,84669
822,10722,163552,84668
823,10741,163457,84679
824,10760,163385,84660
825,10779,163425,84652
826,10798,163434,84646
827,10818,163513,84631
828,10837,163535,84639
829,10856,163524,84652
830,10875,163536,84694
831,10894,163514,84684
832,10913,163530,84692
833,10932,163544,84656
834,10952,163583,84657
835,10971,163567,84656
836,10990,163572,84657
837,11009,163536,84690
838,11028,163487,84688
839,11047,163469,84686
840,11066,163413,84654
841,11086,163411,84618
842,11105,163318,84591
843,11124,163271,84592
844,11143,163218,84628
845,11162,163210,84638
846,11181,163218,84638
847,11200,163279,84636
848,11219,163337,84611
849,11239,163352,84604
850,11258,163406,84626
851,11277,163396,84642
852,11296,163428,84670
853,11315,163424,84670
854,11334,163449,84655
855,11353,163478,84642
856,11373,163487,84626
857,11392,163510,84642
858,11411,163502,84653
859,11430,163500,84682
860,11449,163448,84666
861,11468,163427,84648
862,11487,163341,84592
863,11507,163307,84584
864,11526,163266,84587
865,11545,163239,84576
866,11564,163229,84615
867,11583,163194,84623
868,11602,163198,84600
869,11621,163236,84592
870,11641,163305,84593
871,11660,163347,84585
872,11679,163363,84603
873,11698,163379,84634
874,11717,163392,84652
875,11736,163429,84654
876,11755,163456,84622
877,11775,163531,84633
878,11794,163526,84616
879,11813,163524,84619
880,11832,163542,84669
881,11851,163520,84680
882,11870,163487,84642
883,11889,163418,84608
884,11908,163365,84592
885,11928,163309,84570
886,11947,163269,84571
887,11966,163219,84572
888,11985,163203,84608
889,12004,163220,84607
890,12023,163253,84598
891,12042,163308,84584
892,12062,163321,84572
893,12081,163343,84583
894,12100,163340,84618
895,12119,163361,84642
896,12138,163343,84650
897,12157,163382,84633
898,12176,163402,84590
899,12196,163409,84611
900,12215,163418,84603
901,12234,163391,84604
902,12253,163355,84639
903,12272,163258,84631
904,12291,163216,84591
905,12310,163150,84568
906,12330,163115,84531
907,12349,163061,84523
908,12368,163030,84520
909,12387,162962,84562
910,12406,162934,84566
911,12425,162960,84569
912,12444,163002,84543
913,12464,163044,84529
914,12483,163056,84533
915,12502,163043,84541
916,12521,163033,84577
917,12540,163024,84594
918,12559,162969,84555
919,12578,162966,84534
920,12597,163004,84534
921,12617,163000,84512
922,12636,163004,84514
923,12655,162969,84525
924,12674,162883,84536
925,12693,162761,84514
926,12712,162678,84458
927,12731,162636,84441
928,12751,162591,84405
929,12770,162547,84423
930,12789,162554,84440
931,12808,162517,84447
932,12827,162497,84467
933,12846,162516,84418
934,12865,162544,84424
935,12885,162597,84411
936,12904,162626,84437
937,12923,162596,84429
938,12942,162600,84482
939,12961,162587,84464
940,12980,162585,84463
941,12999,162618,84442
942,13019,162664,84439
943,13038,162683,84435
944,13057,162667,84450
945,13076,162588,84463
946,13095,162513,84436
947,13114,162444,84413
948,13133,162384,84403
949,13153,162379,84375
950,13172,162345,84363
951,13191,162323,84366
952,13210,162316,84409
953,13229,162316,84418
954,13248,162375,84432
955,13267,162434,84408
956,13287,162472,84403
957,13306,162507,84408
958,13325,162534,84426
959,13344,162547,84459
960,13363,162548,84455
961,13382,162563,84471
962,13401,162570,84432
963,13421,162601,84428
964,13440,162596,84421
965,13459,162573,84442
966,13478,162523,84449
967,13497,162441,84438
968,13516,162362,84422
969,13535,162281,84386
970,13554,162284,84335
971,13574,162177,84326
972,13593,162162,84344
973,13612,162123,84340
974,13631,162157,84369
975,13650,162147,84353
976,13669,162151,84341
977,13688,162221,84340
978,13708,162202,84319
979,13727,162189,84318
980,13746,162169,84332
981,13765,162153,84342
982,13784,162123,84340
983,13803,162143,84318
984,13822,162174,84306
985,13842,162204,84290
986,13861,162179,84300
987,13880,162165,84282
988,13899,162084,84310
989,13918,161980,84295
990,13937,161904,84249
991,13956,161801,84222
992,13976,161769,84185
993,13995,161710,84171
994,14014,161700,84192
995,14033,161650,84218
996,14052,161623,84205
997,14071,161624,84211
998,14090,161622,84166
999,14109,161672,84157
1000,14129,161667,84136
1001,14148,161670,84166
1002,14167,161645,84189
1003,14186,161638,84198
1004,14205,161628,84203
1005,14224,161666,84205
1006,14243,161715,84169
1007,14263,161695,84156
1008,14282,161674,84172
1009,14301,161603,84166
1010,14320,161505,84181
1011,14339,161379,84137
1012,14358,161333,84117
1013,14377,161283,84100
1014,14397,161279,84087
1015,14416,161248,84103
1016,14435,161226,84118
1017,14454,161235,84144
1018,14473,161247,84149
1019,14492,161303,84157
1020,14511,161337,84162
1021,14531,161429,84146
1022,14550,161488,84156
1023,14569,161501,84184
1024,14588,161527,84228
1025,14607,161513,84219
1026,14626,161547,84226
1027,14645,161603,84211
1028,14665,161684,84220
1029,14684,161732,84216
1030,14703,161744,84233
1031,14722,161667,84248
1032,14741,161538,84226
1033,14760,161457,84207
1034,14779,161402,84175
1035,14799,161408,84168
1036,14818,161395,84157
1037,14837,161383,84159
1038,14856,161377,84194
1039,14875,161401,84228
1040,14894,161443,84241
1041,14913,161506,84228
1042,14932,161607,84232
1043,14952,161659,84216
1044,14971,161646,84236
1045,14990,161650,84249
1046,15009,161628,84274
1047,15028,161638,84258
1048,15047,161679,84266
1049,15066,161758,84267
1050,15086,161760,84263
1051,15105,161758,84260
1052,15124,161719,84267
1053,15143,161637,84262
1054,15162,161527,84253
1055,15181,161460,84245
1056,15200,161436,84204
1057,15220,161417,84185
1058,15239,161408,84202
1059,15258,161393,84205
1060,15277,161385,84245
1061,15296,161408,84249
1062,15315,161476,84256
1063,15334,161545,84259
1064,15354,161598,84245
1065,15373,161613,84238
1066,15392,161609,84244
1067,15411,161612,84274
1068,15430,161598,84284
1069,15449,161602,84294
1070,15468,161625,84258
1071,15488,161652,84248
1072,15507,161629,84230
1073,15526,161611,84239
1074,15545,161507,84256
1075,15564,161375,84225
1076,15583,161229,84182
1077,15602,161091,84126
1078,15621,161035,84097
1079,15641,160946,84081
1080,15660,160884,84097
1081,15679,160824,84118
1082,15698,160806,84115
1083,15717,160833,84121
1084,15736,160857,84114
1085,15755,160890,84100
1086,15775,160936,84092
1087,15794,160941,84108
1088,15813,160915,84115
1089,15832,160936,84137
1090,15851,160902,84143
1091,15870,160932,84116
1092,15889,160951,84120
1093,15909,160998,84125
1094,15928,161014,84118
1095,15947,161035,84128
1096,15966,160977,84163
1097,15985,160878,84136
1098,16004,160758,84103
1099,16023,160689,84070
1100,16043,160680,84081
1101,16062,160620,84053
1102,16081,160635,84061
1103,16100,160645,84107
1104,16119,160667,84131
1105,16138,160699,84144
1106,16157,160754,84124
1107,16176,160857,84126
1108,16196,160899,84115
1109,16215,160964,84155
1110,16234,161002,84170
1111,16253,161038,84207
1112,16272,161037,84203
1113,16291,161063,84200
1114,16310,161126,84191
1115,16330,161179,84197
1116,16349,161205,84193
1117,16368,161183,84207
1118,16387,161113,84223
1119,16406,161028,84202
1120,16425,160930,84196
1121,16444,160853,84141
1122,16464,160800,84112
1123,16483,160762,84105
1124,16502,160755,84113
1125,16521,160773,84156
1126,16540,160809,84164
1127,16559,160827,84186
1128,16578,160870,84152
1129,16597,160927,84159
1130,16617,160967,84152
1131,16636,160995,84162
1132,16655,161011,84189
1133,16674,161028,84221
1134,16693,160992,84205
1135,16712,161029,84196
1136,16731,161048,84187
1137,16751,161104,84202
1138,16770,161125,84172
1139,16789,161108,84181
1140,16808,161031,84222
1141,16827,160908,84186
1142,16846,160808,84163
1143,16865,160716,84145
1144,16885,160723,84139
1145,16904,160704,84107
1146,16923,160687,84116
1147,16942,160664,84137
1148,16961,160649,84152
1149,16980,160660,84152
1150,16999,160692,84144
1151,17018,160749,84143
1152,17038,160767,84113
1153,17057,160804,84153
1154,17076,160798,84157
1155,17095,160813,84180
1156,17114,160824,84185
1157,17133,160853,84199
1158,17152,160878,84180
1159,17172,160957,84161
1160,17191,160976,84173
1161,17210,160998,84198
1162,17229,160920,84213
1163,17248,160821,84189
1164,17267,160737,84157
1165,17286,160629,84151
1166,17306,160637,84124
1167,17325,160643,84120
1168,17344,160641,84140
1169,17363,160678,84182
1170,17382,160701,84200
1171,17401,160789,84216
1172,17420,160842,84219
1173,17439,160935,84211
1174,17459,161009,84210
1175,17478,160999,84222
1176,17497,161021,84235
1177,17516,161044,84281
1178,17535,161073,84271
1179,17554,161133,84279
1180,17573,161168,84284
1181,17593,161255,84282
1182,17612,161233,84268
1183,17631,161235,84279
1184,17650,161196,84288
1185,17669,161086,84277
1186,17688,160966,84250
1187,17707,160909,84223
1188,17727,160904,84223
1189,17746,160898,84196
1190,17765,160894,84214
1191,17784,160921,84250
1192,17803,160941,84263
1193,17822,160974,84270
1194,17841,161049,84273
1195,17860,161157,84274
1196,17880,161202,84261
1197,17899,161227,84275
1198,17918,161218,84302
1199,17937,161235,84316
1200,17956,161241,84327
1201,17975,161261,84326
1202,17994,161329,84322
1203,18014,161401,84305
1204,18033,161435,84309
1205,18052,161420,84313
1206,18071,161343,84327
1207,18090,161222,84316
1208,18109,161118,84300
1209,18128,161061,84265
1210,18148,161029,84226
1211,18167,160963,84192
1212,18186,160920,84220
1213,18205,160893,84247
1214,18224,160897,84260
1215,18243,160906,84249
1216,18262,160949,84238
1217,18281,160989,84238
1218,18301,161007,84231
1219,18320,160998,84241
1220,18339,160984,84242
1221,18358,161043,84285
1222,18377,161024,84275
1223,18396,161044,84268
1224,18415,161111,84270
1225,18435,161199,84275
1226,18454,161255,84260
1227,18473,161223,84283
1228,18492,161159,84294
1229,18511,161040,84282
1230,18530,160919,84248
1231,18549,160870,84233
1232,18568,160856,84205
1233,18588,160824,84191
1234,18607,160844,84218
1235,18626,160845,84229
1236,18645,160859,84268
1237,18664,160891,84268
1238,18683,160952,84241
1239,18702,161027,84256
1240,18722,161072,84244
1241,18741,161104,84271
1242,18760,161108,84278
1243,18779,161108,84301
1244,18798,161124,84309
1245,18817,161157,84302
1246,18836,161169,84296
1247,18856,161236,84289
1248,18875,161246,84286
1249,18894,161275,84307
1250,18913,161232,84332
1251,18932,161135,84299
1252,18951,160995,84284
1253,18970,160897,84226
1254,18990,160863,84209
1255,19009,160797,84186
1256,19028,160753,84212
1257,19047,160743,84231
1258,19066,160756,84231
1259,19085,160777,84240
1260,19104,160803,84226
1261,19123,160840,84218
1262,19143,160815,84181
1263,19162,160734,84183
1264,19181,160680,84194
1265,19200,160697,84239
1266,19219,160686,84214
1267,19238,160718,84211
1268,19257,160773,84215
1269,19277,160834,84212
1270,19296,160888,84221
1271,19315,160886,84214
1272,19334,160810,84267
1273,19353,160703,84210
1274,19372,160558,84176
1275,19391,160475,84146
1276,19411,160425,84116
1277,19430,160399,84110
1278,19449,160408,84118
1279,19468,160412,84178
1280,19487,160421,84197
1281,19506,160498,84184
1282,19525,160583,84178
1283,19544,160652,84174
1284,19564,160685,84174
1285,19583,160732,84199
1286,19602,160716,84200
1287,19621,160670,84218
1288,19640,160628,84220
1289,19659,160676,84212
1290,19678,160718,84191
1291,19698,160747,84203
1292,19717,160783,84208
1293,19736,160798,84242
1294,19755,160782,84252
1295,19774,160720,84231
1296,19793,160692,84224
1297,19812,160648,84196
1298,19832,160686,84178
1299,19851,160707,84172
1300,19870,160761,84216
1301,19889,160829,84264
1302,19908,160889,84277
1303,19927,160951,84291
1304,19946,160984,84273
1305,19966,161032,84256
1306,19985,161055,84248
1307,20004,161103,84273
1308,20023,161118,84289
1309,20042,161111,84301
1310,20061,161119,84300
1311,20080,161167,84290
1312,20099,161231,84294
1313,20119,161275,84275
1314,20138,161296,84299
1315,20157,161274,84292
1316,20176,161194,84311
1317,20195,161077,84271
1318,20214,160991,84270
1319,20233,160942,84223
1320,20253,160898,84215
1321,20272,160827,84220
1322,20291,160803,84200
1323,20310,160800,84234
1324,20329,160810,84258
1325,20348,160820,84245
1326,20367,160865,84220
1327,20387,160921,84223
1328,20406,160925,84222
1329,20425,160937,84236
1330,20444,160941,84269
1331,20463,160922,84258
1332,20482,160926,84276
1333,20501,160974,84247
1334,20521,161026,84266
1335,20540,161059,84243
1336,20559,161080,84260
1337,20578,161045,84259
1338,20597,160962,84267
1339,20616,160852,84238
1340,20635,160730,84196
1341,20654,160638,84159
1342,20674,160562,84118
1343,20693,160457,84135
1344,20712,160402,84124
1345,20731,160363,84150
1346,20750,160377,84159
1347,20769,160432,84153
1348,20788,160497,84140
1349,20808,160510,84141
1350,20827,160541,84137
1351,20846,160549,84160
1352,20865,160570,84223
1353,20884,160554,84196
1354,20903,160576,84176
1355,20922,160567,84172
1356,20942,160602,84167
1357,20961,160648,84169
1358,20980,160693,84187
1359,20999,160738,84233
1360,21018,160773,84249
1361,21037,160743,84232
1362,21056,160671,84198
1363,21076,160633,84166
1364,21095,160581,84152
1365,21114,160534,84171
1366,21133,160490,84185
1367,21152,160530,84212
1368,21171,160585,84230
1369,21190,160671,84217
1370,21209,160795,84221
1371,21229,160861,84222
1372,21248,160905,84252
1373,21267,160913,84262
1374,21286,160946,84285
1375,21305,160950,84302
1376,21324,161000,84299
1377,21343,161054,84291
1378,21363,161129,84273
1379,21382,161153,84292
1380,21401,161167,84316
1381,21420,161174,84340
1382,21439,161165,84332
1383,21458,161167,84325
1384,21477,161126,84299
1385,21497,161045,84266
1386,21516,160939,84236
1387,21535,160807,84232
1388,21554,160750,84255
1389,21573,160731,84269
1390,21592,160744,84268
1391,21611,160820,84268
1392,21630,160910,84272
1393,21650,160951,84250
1394,21669,161046,84290
1395,21688,161082,84329
1396,21707,161137,84339
1397,21726,161153,84334
1398,21745,161161,84341
1399,21764,161209,84337
1400,21784,161243,84321
1401,21803,161244,84347
1402,21822,161247,84357
1403,21841,161252,84370
1404,21860,161263,84382
1405,21879,161273,84374
1406,21898,161228,84324
1407,21918,161136,84286
1408,21937,160980,84262
1409,21956,160823,84239
1410,21975,160690,84261
1411,21994,160602,84257
1412,22013,160557,84241
1413,22032,160566,84219
1414,22051,160625,84205
1415,22071,160632,84198
1416,22090,160597,84191
1417,22109,160591,84212
1418,22128,160586,84230
1419,22147,160587,84221
1420,22166,160607,84222
1421,22185,160594,84198
1422,22205,160602,84184
1423,22224,160599,84201
1424,22243,160624,84188
1425,22262,160622,84236
1426,22281,160610,84249
1427,22300,160630,84233
1428,22319,160605,84230
1429,22338,160599,84182
1430,22358,160515,84170
1431,22377,160425,84185
1432,22396,160338,84165
1433,22415,160250,84168
1434,22434,160202,84184
1435,22453,160218,84174
1436,22472,160335,84183
1437,22492,160451,84187
1438,22511,160559,84219
1439,22530,160590,84227
1440,22549,160655,84290
1441,22568,160716,84309
1442,22587,160785,84324
1443,22606,160883,84326
1444,22626,160973,84324
1445,22645,161024,84325
1446,22664,161048,84345
1447,22683,161048,84356
1448,22702,161070,84394
1449,22721,161118,84391
1450,22740,161194,84386
1451,22759,161234,84361
1452,22779,161217,84354
1453,22798,161126,84341
1454,22817,161022,84318
1455,22836,160912,84344
1456,22855,160837,84337
1457,22874,160834,84324
1458,22893,160845,84314
1459,22913,160900,84306
1460,22932,160935,84303
1461,22951,160945,84307
1462,22970,160958,84356
1463,22989,161007,84378
1464,23008,161051,84395
1465,23027,161108,84388
1466,23046,161190,84378
1467,23066,161248,84373
1468,23085,161270,84390
1469,23104,161246,84407
1470,23123,161234,84422
1471,23142,161258,84427
1472,23161,161288,84444
1473,23180,161350,84431
1474,23200,161425,84412
1475,23219,161371,84404
1476,23238,161270,84394
1477,23257,161108,84375
1478,23276,160976,84354
1479,23295,160851,84338
1480,23314,160838,84326
1481,23333,160855,84304
1482,23353,160841,84287
1483,23372,160869,84308
1484,23391,160860,84336
1485,23410,160867,84382
1486,23429,160915,84376
1487,23448,160957,84370
1488,23467,161014,84377
1489,23487,161106,84366
1490,23506,161102,84359
1491,23525,161089,84362
1492,23544,161086,84417
1493,23563,161090,84408
1494,23582,161105,84431
1495,23601,161171,84434
1496,23620,161270,84437
1497,23640,161335,84423
1498,23659,161352,84441
1499,23678,161270,84446
1500,23697,161145,84438
1501,23716,161032,84410
1502,23735,161016,84403
1503,23754,161029,84408
1504,23774,161086,84401
1505,23793,161110,84420
1506,23812,161161,84441
1507,23831,161203,84469
1508,23850,161238,84489
1509,23869,161312,84501
1510,23888,161394,84513
1511,23907,161475,84513
1512,23927,161530,84505
1513,23946,161549,84508
1514,23965,161545,84524
1515,23984,161592,84557
1516,24003,161598,84564
1517,24022,161630,84553
1518,24041,161638,84530
1519,24061,161690,84534
1520,24080,161713,84517
1521,24099,161712,84534
1522,24118,161617,84534
1523,24137,161466,84499
1524,24156,161298,84471
1525,24175,161180,84440
1526,24194,161129,84408
1527,24214,161117,84377
1528,24233,161098,84392
1529,24252,161064,84396
1530,24271,161077,84447
1531,24290,161075,84430
1532,24309,161143,84433
1533,24328,161206,84434
1534,24348,161318,84437
1535,24367,161334,84438
1536,24386,161357,84448
1537,24405,161333,84487
1538,24424,161344,84488
1539,24443,161354,84493
1540,24462,161397,84493
1541,24481,161467,84496
1542,24501,161503,84475
1543,24520,161542,84507
1544,24539,161554,84491
1545,24558,161507,84516
1546,24577,161374,84503
1547,24596,161279,84466
1548,24615,161181,84440
1549,24635,161209,84438
1550,24654,161170,84415
1551,24673,161158,84429
1552,24692,161131,84467
1553,24711,161122,84480
1554,24730,161121,84472
1555,24749,161160,84461
1556,24768,161202,84446
1557,24788,161240,84443
1558,24807,161226,84419
1559,24826,161181,84426
1560,24845,161129,84446
1561,24864,161037,84423
1562,24883,161001,84429
1563,24902,160974,84406
1564,24922,161009,84374
1565,24941,161020,84378
1566,24960,161003,84402
1567,24979,160976,84399
1568,24998,160912,84394
1569,25017,160786,84364
1570,25036,160670,84339
1571,25055,160557,84295
1572,25075,160442,84243
1573,25094,160342,84235
1574,25113,160270,84233
1575,25132,160225,84271
1576,25151,160231,84275
1577,25170,160264,84285
1578,25189,160309,84283
1579,25209,160386,84266
1580,25228,160406,84259
1581,25247,160454,84291
1582,25266,160466,84327
1583,25285,160484,84343
1584,25304,160495,84332
1585,25323,160514,84314
1586,25342,160556,84311
1587,25362,160595,84313
1588,25381,160681,84330
1589,25400,160715,84355
1590,25419,160783,84411
1591,25438,160795,84406
1592,25457,160764,84391
1593,25476,160647,84328
1594,25496,160571,84316
1595,25515,160450,84270
1596,25534,160387,84294
1597,25553,160368,84319
1598,25572,160376,84349
1599,25591,160437,84361
1600,25610,160522,84361
1601,25629,160654,84385
1602,25649,160751,84383
1603,25668,160845,84403
1604,25687,160874,84432
1605,25706,160896,84456
1606,25725,160891,84462
1607,25744,160931,84472
1608,25763,160966,84456
1609,25783,161032,84438
1610,25802,161026,84440
1611,25821,161046,84439
1612,25840,161015,84456
1613,25859,161022,84479
1614,25878,161029,84474
1615,25897,161019,84451
1616,25916,160933,84400
1617,25936,160735,84347
1618,25955,160587,84325
1619,25974,160370,84274
1620,25993,160285,84299
1621,26012,160222,84307
1622,26031,160220,84306
1623,26050,160205,84281
1624,26070,160211,84270
1625,26089,160180,84268
1626,26108,160214,84266
1627,26127,160244,84309
1628,26146,160268,84327
1629,26165,160283,84323
1630,26184,160307,84311
1631,26203,160324,84288
1632,26223,160331,84294
1633,26242,160330,84310
1634,26261,160347,84337
1635,26280,160367,84354
1636,26299,160346,84349
1637,26318,160386,84335
1638,26337,160407,84315
1639,26357,160336,84292
1640,26376,160188,84242
1641,26395,159972,84210
1642,26414,159753,84214
1643,26433,159585,84176
1644,26452,159502,84152
1645,26471,159457,84117
1646,26491,159475,84121
1647,26510,159498,84132
1648,26529,159516,84152
1649,26548,159552,84187
1650,26567,159599,84197
1651,26586,159637,84218
1652,26605,159702,84211
1653,26625,159782,84210
1654,26644,159829,84212
1655,26663,159862,84226
1656,26682,159807,84250
1657,26701,159794,84243
1658,26720,159808,84278
1659,26739,159881,84260
1660,26758,159966,84267
1661,26778,160000,84247
1662,26797,159977,84243
1663,26816,159811,84220
1664,26835,159639,84240
1665,26854,159581,84210
1666,26873,159426,84172
1667,26892,159335,84143
1668,26912,159269,84115
1669,26931,159225,84124
1670,26950,159204,84122
1671,26969,159241,84174
1672,26988,159271,84168
1673,27007,159350,84180
1674,27026,159452,84179
1675,27046,159598,84207
1676,27065,159662,84205
1677,27084,159731,84233
1678,27103,159767,84280
1679,27122,159814,84295
1680,27141,159885,84309
1681,27160,159968,84306
1682,27180,160077,84296
1683,27199,160140,84311
1684,27218,160235,84349
1685,27237,160306,84376
1686,27256,160354,84421
1687,27275,160370,84409
1688,27294,160341,84373
1689,27313,160273,84342
1690,27333,160142,84286
1691,27352,159999,84285
1692,27371,159875,84278
1693,27390,159763,84285
1694,27409,159708,84284
1695,27428,159758,84280
1696,27447,159836,84291
1697,27467,159910,84264
1698,27486,159969,84292
1699,27505,160002,84312
1700,27524,160064,84345
1701,27543,160091,84356
1702,27562,160188,84347
1703,27581,160236,84342
1704,27601,160333,84352
1705,27620,160371,84367
1706,27639,160449,84390
1707,27658,160448,84441
1708,27677,160467,84429
1709,27696,160487,84459
1710,27715,160537,84439
1711,27735,160625,84442
1712,27754,160655,84442
1713,27773,160678,84446
1714,27792,160527,84441
1715,27811,160333,84401
1716,27830,160134,84368
1717,27849,159990,84309
1718,27868,159876,84274
1719,27888,159778,84219
1720,27907,159697,84245
1721,27926,159640,84247
1722,27945,159643,84293
1723,27964,159648,84287
1724,27983,159702,84296
1725,28002,159758,84272
1726,28022,159806,84278
1727,28041,159832,84287
1728,28060,159851,84286
1729,28079,159881,84334
1730,28098,159933,84349
1731,28117,159963,84341
1732,28136,160011,84348
1733,28156,160093,84331
1734,28175,160117,84341
1735,28194,160160,84343
1736,28213,160192,84400
1737,28232,160204,84405
1738,28251,160238,84412
1739,28270,160221,84380
1740,28290,160145,84346
1741,28309,159933,84294
1742,28328,159738,84261
1743,28347,159543,84269
1744,28366,159398,84236
1745,28385,159285,84222
1746,28404,159246,84192
1747,28423,159237,84171
1748,28443,159239,84169
1749,28462,159242,84180
1750,28481,159212,84190
1751,28500,159248,84237
1752,28519,159303,84248
1753,28538,159386,84246
1754,28557,159481,84232
1755,28577,159547,84237
1756,28596,159617,84273
1757,28615,159615,84283
1758,28634,159639,84320
1759,28653,159649,84328
1760,28672,159717,84330
1761,28691,159765,84319
1762,28711,159837,84307
1763,28730,159878,84346
1764,28749,159909,84349
1765,28768,159935,84395
1766,28787,159909,84387
1767,28806,159803,84332
1768,28825,159616,84279
1769,28845,159455,84248
1770,28864,159266,84206
1771,28883,159148,84201
1772,28902,159060,84215
1773,28921,159009,84222
1774,28940,158989,84216
1775,28959,159009,84199
1776,28978,159104,84207
1777,28998,159146,84210
1778,29017,159216,84232
1779,29036,159291,84279
1780,29055,159318,84299
1781,29074,159379,84308
1782,29093,159452,84311
1783,29112,159549,84324
1784,29132,159626,84323
1785,29151,159685,84336
1786,29170,159746,84354
1787,29189,159796,84382
1788,29208,159804,84419
1789,29227,159879,84410
1790,29246,159971,84399
1791,29266,160102,84420
1792,29285,160179,84424
1793,29304,160190,84433
1794,29323,160094,84445
1795,29342,159911,84397
1796,29361,159776,84365
1797,29380,159616,84320
1798,29400,159541,84294
1799,29419,159478,84272
1800,29438,159436,84266
1801,29457,159423,84315
1802,29476,159431,84330
1803,29495,159504,84357
1804,29514,159608,84353
1805,29533,159726,84352
1806,29553,159810,84345
1807,29572,159870,84390
1808,29591,159910,84417
1809,29610,159897,84423
1810,29629,159927,84410
1811,29648,159974,84424
1812,29667,160041,84405
1813,29687,160083,84416
1814,29706,160124,84435
1815,29725,160135,84463
1816,29744,160183,84479
1817,29763,160201,84476
1818,29782,160250,84502
1819,29801,160366,84495
1820,29821,160459,84497
1821,29840,160504,84503
1822,29859,160495,84489
1823,29878,160376,84498
1824,29897,160210,84459
1825,29916,160022,84428
1826,29935,159886,84380
1827,29955,159830,84369
1828,29974,159749,84345
1829,29993,159701,84345
